 #written on 31Jul2024 at 00:00:14 
 #----------------------------------------------- MONTECARLO ---------------------------------------------------#
 # Temp      Magnetization     Energy_ave          C_M              Sus              U_E              U_M       #
 #--------------------------------------------------------------------------------------------------------------#
   1.0000   0.15335136E-02  -0.81384686E+02   0.10019400E+01   0.13125871E-02   0.66666657E+00   0.33990964E+00
   2.0000   0.21861159E-02  -0.80375647E+02   0.10077918E+01   0.12962357E-02   0.66666627E+00   0.34557165E+00
   3.0000   0.26969620E-02  -0.79360850E+02   0.10177164E+01   0.12953098E-02   0.66666575E+00   0.34662407E+00
   4.0000   0.31244822E-02  -0.78337433E+02   0.10275549E+01   0.12722056E-02   0.66666497E+00   0.35291484E+00
   5.0000   0.35128846E-02  -0.77308225E+02   0.10196295E+01   0.12635258E-02   0.66666397E+00   0.35653942E+00
   6.0000   0.38689555E-02  -0.76272228E+02   0.10422257E+01   0.12510649E-02   0.66666258E+00   0.36237042E+00
   7.0000   0.41913833E-02  -0.75226414E+02   0.10512094E+01   0.12386845E-02   0.66666090E+00   0.36512273E+00
   8.0000   0.45036265E-02  -0.74174137E+02   0.10555526E+01   0.12304156E-02   0.66665889E+00   0.36974378E+00
   9.0000   0.47969524E-02  -0.73112868E+02   0.10647486E+01   0.12213362E-02   0.66665645E+00   0.37382998E+00
  10.0000   0.50883005E-02  -0.72042338E+02   0.10718944E+01   0.12160187E-02   0.66665359E+00   0.37865693E+00
  11.0000   0.53556983E-02  -0.70961677E+02   0.10849524E+01   0.12102081E-02   0.66665016E+00   0.38130563E+00
  12.0000   0.56174511E-02  -0.69870566E+02   0.10963136E+01   0.12025208E-02   0.66664620E+00   0.38586623E+00
  13.0000   0.58751823E-02  -0.68769090E+02   0.11058650E+01   0.12000155E-02   0.66664165E+00   0.38854291E+00
  14.0000   0.61310127E-02  -0.67656217E+02   0.11178166E+01   0.11941496E-02   0.66663637E+00   0.39346248E+00
  15.0000   0.63711926E-02  -0.66532351E+02   0.11352133E+01   0.11928328E-02   0.66663014E+00   0.39585604E+00
  16.0000   0.66094478E-02  -0.65395218E+02   0.11429353E+01   0.11873216E-02   0.66662336E+00   0.39983824E+00
  17.0000   0.68470883E-02  -0.64244149E+02   0.11566659E+01   0.11839809E-02   0.66661541E+00   0.40336449E+00
  18.0000   0.70706170E-02  -0.63074248E+02   0.11743463E+01   0.11828942E-02   0.66660614E+00   0.40598271E+00
  19.0000   0.73040737E-02  -0.61893004E+02   0.11890415E+01   0.11850576E-02   0.66659575E+00   0.40817564E+00
  20.0000   0.75276849E-02  -0.60693420E+02   0.12050972E+01   0.11804452E-02   0.66658386E+00   0.41198522E+00
  21.0000   0.77439480E-02  -0.59474177E+02   0.12309997E+01   0.11820848E-02   0.66656955E+00   0.41381673E+00
  22.0000   0.79650534E-02  -0.58236017E+02   0.12515066E+01   0.11819843E-02   0.66655365E+00   0.41651403E+00
  23.0000   0.81759189E-02  -0.56974723E+02   0.12772290E+01   0.11833529E-02   0.66653497E+00   0.41857357E+00
  24.0000   0.83916794E-02  -0.55686302E+02   0.12962719E+01   0.11832454E-02   0.66651433E+00   0.42196484E+00
  25.0000   0.86134014E-02  -0.54372535E+02   0.13315436E+01   0.11880158E-02   0.66648859E+00   0.42384761E+00
  26.0000   0.88236518E-02  -0.53030158E+02   0.13550304E+01   0.11892247E-02   0.66646062E+00   0.42681834E+00
  27.0000   0.90345702E-02  -0.51657922E+02   0.13937439E+01   0.11942635E-02   0.66642583E+00   0.42812927E+00
  28.0000   0.92422988E-02  -0.50250717E+02   0.14266510E+01   0.11958300E-02   0.66638652E+00   0.43057360E+00
  29.0000   0.94550251E-02  -0.48803528E+02   0.14628571E+01   0.12045109E-02   0.66634003E+00   0.43173032E+00
  30.0000   0.96663639E-02  -0.47319615E+02   0.15072538E+01   0.12086989E-02   0.66628359E+00   0.43329489E+00
  31.0000   0.98832332E-02  -0.45788104E+02   0.15549448E+01   0.12143397E-02   0.66621607E+00   0.43534035E+00
  32.0000   0.10087701E-01  -0.44210077E+02   0.16046654E+01   0.12250051E-02   0.66613533E+00   0.43637794E+00
  33.0000   0.10298000E-01  -0.42576057E+02   0.16603191E+01   0.12299669E-02   0.66603638E+00   0.43775682E+00
  34.0000   0.10515764E-01  -0.40887736E+02   0.17188431E+01   0.12398989E-02   0.66591581E+00   0.43950884E+00
  35.0000   0.10722983E-01  -0.39131833E+02   0.17886610E+01   0.12495010E-02   0.66576288E+00   0.44029903E+00
  36.0000   0.10935617E-01  -0.37309227E+02   0.18617255E+01   0.12573374E-02   0.66557246E+00   0.44114389E+00
  37.0000   0.11146817E-01  -0.35407390E+02   0.19381861E+01   0.12688478E-02   0.66533110E+00   0.44207342E+00
  38.0000   0.11360621E-01  -0.33422443E+02   0.20370353E+01   0.12795922E-02   0.66500628E+00   0.44326777E+00
  39.0000   0.11574790E-01  -0.31334708E+02   0.21458760E+01   0.12957862E-02   0.66457213E+00   0.44257575E+00
  40.0000   0.11798004E-01  -0.29135884E+02   0.22707700E+01   0.13062464E-02   0.66397248E+00   0.44376304E+00
  41.0000   0.12018298E-01  -0.26806770E+02   0.23956581E+01   0.13231140E-02   0.66314318E+00   0.44393047E+00
  42.0000   0.12243270E-01  -0.24349600E+02   0.24926940E+01   0.13386757E-02   0.66200463E+00   0.44412874E+00
  43.0000   0.12454914E-01  -0.21947630E+02   0.22152278E+01   0.13560183E-02   0.66127532E+00   0.44362883E+00
  44.0000   0.12645795E-01  -0.20035093E+02   0.16267387E+01   0.13655265E-02   0.66165964E+00   0.44363625E+00
  45.0000   0.12804292E-01  -0.18644508E+02   0.11945116E+01   0.13656195E-02   0.66223006E+00   0.44465701E+00
  46.0000   0.12939214E-01  -0.17592035E+02   0.94321434E+00   0.13628948E-02   0.66256531E+00   0.44459433E+00
  47.0000   0.13058464E-01  -0.16728160E+02   0.79173162E+00   0.13578585E-02   0.66269959E+00   0.44480779E+00
  48.0000   0.13183742E-01  -0.15989579E+02   0.68769376E+00   0.13556176E-02   0.66273715E+00   0.44452678E+00
  49.0000   0.13287645E-01  -0.15339670E+02   0.61239529E+00   0.13509556E-02   0.66270730E+00   0.44430340E+00
  50.0000   0.13400436E-01  -0.14759948E+02   0.54878778E+00   0.13473963E-02   0.66267873E+00   0.44448775E+00
  51.0000   0.13493631E-01  -0.14234958E+02   0.50008275E+00   0.13367312E-02   0.66260331E+00   0.44520925E+00
  52.0000   0.13595471E-01  -0.13756363E+02   0.45846783E+00   0.13334968E-02   0.66252052E+00   0.44436389E+00
  53.0000   0.13683690E-01  -0.13316480E+02   0.42259148E+00   0.13233368E-02   0.66243113E+00   0.44476073E+00
  54.0000   0.13766324E-01  -0.12907245E+02   0.39236279E+00   0.13146736E-02   0.66232338E+00   0.44436673E+00
  55.0000   0.13857794E-01  -0.12529067E+02   0.36454411E+00   0.13104922E-02   0.66222437E+00   0.44466565E+00
  56.0000   0.13935745E-01  -0.12175880E+02   0.34102586E+00   0.13022372E-02   0.66210516E+00   0.44391840E+00
  57.0000   0.14010648E-01  -0.11845834E+02   0.31955319E+00   0.12930324E-02   0.66198958E+00   0.44427184E+00
  58.0000   0.14097490E-01  -0.11537114E+02   0.29991698E+00   0.12840081E-02   0.66187687E+00   0.44467291E+00
  59.0000   0.14173341E-01  -0.11244063E+02   0.28301226E+00   0.12778605E-02   0.66174320E+00   0.44442445E+00
  60.0000   0.14240816E-01  -0.10970120E+02   0.26727504E+00   0.12648720E-02   0.66161422E+00   0.44489646E+00
  61.0000   0.14312157E-01  -0.10709769E+02   0.25303570E+00   0.12614369E-02   0.66148228E+00   0.44373506E+00
  62.0000   0.14365995E-01  -0.10463558E+02   0.24004525E+00   0.12531763E-02   0.66134280E+00   0.44350976E+00
  63.0000   0.14439061E-01  -0.10228602E+02   0.22795748E+00   0.12420177E-02   0.66120553E+00   0.44444568E+00
  64.0000   0.14503265E-01  -0.10008243E+02   0.21693667E+00   0.12316590E-02   0.66106671E+00   0.44457546E+00
  65.0000   0.14572447E-01  -0.97954004E+01   0.20675242E+00   0.12226109E-02   0.66092137E+00   0.44459898E+00
  66.0000   0.14632723E-01  -0.95936053E+01   0.19759577E+00   0.12180261E-02   0.66076537E+00   0.44451773E+00
  67.0000   0.14691139E-01  -0.94010912E+01   0.18853244E+00   0.12056402E-02   0.66062449E+00   0.44493469E+00
  68.0000   0.14752667E-01  -0.92165908E+01   0.18026237E+00   0.12022437E-02   0.66047631E+00   0.44400264E+00
  69.0000   0.14811171E-01  -0.90401522E+01   0.17309069E+00   0.11935474E-02   0.66030739E+00   0.44427051E+00
  70.0000   0.14865130E-01  -0.88702287E+01   0.16544611E+00   0.11826398E-02   0.66017050E+00   0.44472386E+00
  71.0000   0.14916159E-01  -0.87080737E+01   0.15939827E+00   0.11766789E-02   0.65998613E+00   0.44419902E+00
  72.0000   0.14965267E-01  -0.85523878E+01   0.15288569E+00   0.11663150E-02   0.65983967E+00   0.44484828E+00
  73.0000   0.15015833E-01  -0.84018713E+01   0.14729689E+00   0.11602008E-02   0.65965857E+00   0.44423069E+00
  74.0000   0.15076429E-01  -0.82579777E+01   0.14190474E+00   0.11524975E-02   0.65948989E+00   0.44426486E+00
  75.0000   0.15120508E-01  -0.81195999E+01   0.13658897E+00   0.11417994E-02   0.65932385E+00   0.44492062E+00
  76.0000   0.15170145E-01  -0.79835428E+01   0.13162386E+00   0.11353096E-02   0.65915227E+00   0.44508895E+00
  77.0000   0.15225023E-01  -0.78545351E+01   0.12699364E+00   0.11307240E-02   0.65898334E+00   0.44409339E+00
  78.0000   0.15264262E-01  -0.77295121E+01   0.12277707E+00   0.11212258E-02   0.65879564E+00   0.44417588E+00
  79.0000   0.15313339E-01  -0.76086038E+01   0.11864617E+00   0.11116388E-02   0.65861869E+00   0.44474436E+00
  80.0000   0.15354113E-01  -0.74913417E+01   0.11463124E+00   0.11063577E-02   0.65843830E+00   0.44421283E+00
