 #written on 16Sep2024 at 00:06:41 
 #----------------------------------------------- MONTECARLO ---------------------------------------------------#
 # Temp      Magnetization     Energy_ave          C_M              Sus              U_E              U_M       #
 #--------------------------------------------------------------------------------------------------------------#
   5.0000   0.19431665E-02  -0.16685896E+03   0.10194476E+01   0.42518843E-03   0.66666616E+00   0.36574230E+00
   6.0000   0.21387442E-02  -0.16584318E+03   0.10078392E+01   0.41971825E-03   0.66666593E+00   0.37132868E+00
   7.0000   0.23140365E-02  -0.16482504E+03   0.10196956E+01   0.41197916E-03   0.66666564E+00   0.37669374E+00
   8.0000   0.24897992E-02  -0.16380271E+03   0.10265458E+01   0.41160119E-03   0.66666531E+00   0.38069395E+00
   9.0000   0.26518722E-02  -0.16277658E+03   0.10396211E+01   0.40787133E-03   0.66666490E+00   0.38537878E+00
  10.0000   0.28047287E-02  -0.16174648E+03   0.10404819E+01   0.40395242E-03   0.66666446E+00   0.39024368E+00
  11.0000   0.29562729E-02  -0.16071420E+03   0.10373971E+01   0.40098594E-03   0.66666397E+00   0.39480545E+00
  12.0000   0.30962308E-02  -0.15967622E+03   0.10314938E+01   0.39940415E-03   0.66666343E+00   0.39718495E+00
  13.0000   0.32347731E-02  -0.15863438E+03   0.10373559E+01   0.39698902E-03   0.66666280E+00   0.40076639E+00
  14.0000   0.33702896E-02  -0.15758841E+03   0.10544049E+01   0.39647147E-03   0.66666204E+00   0.40412668E+00
  15.0000   0.34983643E-02  -0.15653811E+03   0.10535528E+01   0.39375996E-03   0.66666129E+00   0.40709942E+00
  16.0000   0.36255977E-02  -0.15547995E+03   0.10541410E+01   0.39222538E-03   0.66666047E+00   0.41049608E+00
  17.0000   0.37491853E-02  -0.15442232E+03   0.10658391E+01   0.39152626E-03   0.66665949E+00   0.41307721E+00
  18.0000   0.38700471E-02  -0.15335608E+03   0.10682845E+01   0.39049226E-03   0.66665849E+00   0.41515438E+00
  19.0000   0.39893851E-02  -0.15228513E+03   0.10687281E+01   0.39007192E-03   0.66665743E+00   0.41792312E+00
  20.0000   0.41079460E-02  -0.15120479E+03   0.10892807E+01   0.39007043E-03   0.66665608E+00   0.42003727E+00
  21.0000   0.42191450E-02  -0.15011944E+03   0.10883668E+01   0.38972942E-03   0.66665484E+00   0.42152390E+00
  22.0000   0.43284778E-02  -0.14902978E+03   0.10974556E+01   0.38868005E-03   0.66665338E+00   0.42342912E+00
  23.0000   0.44418889E-02  -0.14793355E+03   0.11048907E+01   0.38812563E-03   0.66665183E+00   0.42664141E+00
  24.0000   0.45499702E-02  -0.14682739E+03   0.11076096E+01   0.38862379E-03   0.66665023E+00   0.42765763E+00
  25.0000   0.46559478E-02  -0.14571596E+03   0.11207829E+01   0.38932873E-03   0.66664834E+00   0.42859043E+00
  26.0000   0.47600353E-02  -0.14459499E+03   0.11332233E+01   0.38794461E-03   0.66664632E+00   0.43138770E+00
  27.0000   0.48657374E-02  -0.14345770E+03   0.11327441E+01   0.38946223E-03   0.66664438E+00   0.43210270E+00
  28.0000   0.49721498E-02  -0.14231706E+03   0.11525860E+01   0.38998837E-03   0.66664189E+00   0.43383830E+00
  29.0000   0.50697842E-02  -0.14116272E+03   0.11618500E+01   0.39062112E-03   0.66663943E+00   0.43459850E+00
  30.0000   0.51677228E-02  -0.13999349E+03   0.11676248E+01   0.39185684E-03   0.66663689E+00   0.43522146E+00
  31.0000   0.52687192E-02  -0.13881389E+03   0.11917076E+01   0.39260957E-03   0.66663366E+00   0.43599615E+00
  32.0000   0.53725340E-02  -0.13761764E+03   0.12038636E+01   0.39382998E-03   0.66663051E+00   0.43717250E+00
  33.0000   0.54718879E-02  -0.13640091E+03   0.12245026E+01   0.39457014E-03   0.66662686E+00   0.43870276E+00
  34.0000   0.55618083E-02  -0.13516626E+03   0.12453922E+01   0.39488337E-03   0.66662290E+00   0.43944307E+00
  35.0000   0.56608043E-02  -0.13390646E+03   0.12701841E+01   0.39711400E-03   0.66661847E+00   0.43995821E+00
  36.0000   0.57561954E-02  -0.13262675E+03   0.13013610E+01   0.39769104E-03   0.66661342E+00   0.44041988E+00
  37.0000   0.58495382E-02  -0.13131306E+03   0.13310172E+01   0.39866073E-03   0.66660798E+00   0.44151993E+00
  38.0000   0.59445449E-02  -0.12996097E+03   0.13670318E+01   0.39961972E-03   0.66660177E+00   0.44247000E+00
  39.0000   0.60402778E-02  -0.12857210E+03   0.14092306E+01   0.40235172E-03   0.66659467E+00   0.44218533E+00
  40.0000   0.61372537E-02  -0.12713269E+03   0.14633641E+01   0.40496685E-03   0.66658623E+00   0.44203448E+00
  41.0000   0.62359533E-02  -0.12564048E+03   0.15224905E+01   0.40738940E-03   0.66657665E+00   0.44258066E+00
  42.0000   0.63275237E-02  -0.12407751E+03   0.16004683E+01   0.40864860E-03   0.66656486E+00   0.44345867E+00
  43.0000   0.64279532E-02  -0.12244725E+03   0.16692457E+01   0.41142443E-03   0.66655238E+00   0.44367793E+00
  44.0000   0.65273406E-02  -0.12075732E+03   0.17467312E+01   0.41434887E-03   0.66653792E+00   0.44374143E+00
  45.0000   0.66231817E-02  -0.11898684E+03   0.17821646E+01   0.41648263E-03   0.66652512E+00   0.44466407E+00
  46.0000   0.67220533E-02  -0.11720375E+03   0.17722229E+01   0.42084176E-03   0.66651507E+00   0.44372672E+00
  47.0000   0.68143579E-02  -0.11545427E+03   0.17099283E+01   0.42292705E-03   0.66650925E+00   0.44431393E+00
  48.0000   0.69141384E-02  -0.11378584E+03   0.16244438E+01   0.42512006E-03   0.66650609E+00   0.44464616E+00
  49.0000   0.70042653E-02  -0.11221564E+03   0.15445781E+01   0.42789327E-03   0.66650306E+00   0.44439304E+00
  50.0000   0.70932025E-02  -0.11072024E+03   0.14460224E+01   0.43030650E-03   0.66650284E+00   0.44416179E+00
  51.0000   0.71719075E-02  -0.10930552E+03   0.13857028E+01   0.43170316E-03   0.66649909E+00   0.44373587E+00
  52.0000   0.72607916E-02  -0.10795305E+03   0.13198789E+01   0.43379610E-03   0.66649656E+00   0.44418217E+00
  53.0000   0.73432052E-02  -0.10665298E+03   0.12696892E+01   0.43519310E-03   0.66649250E+00   0.44423325E+00
  54.0000   0.74237997E-02  -0.10540622E+03   0.12311072E+01   0.43596469E-03   0.66648721E+00   0.44460364E+00
  55.0000   0.75001036E-02  -0.10419722E+03   0.11904483E+01   0.43799045E-03   0.66648244E+00   0.44371499E+00
  56.0000   0.75803725E-02  -0.10302683E+03   0.11509233E+01   0.43825634E-03   0.66647781E+00   0.44453227E+00
  57.0000   0.76496178E-02  -0.10189257E+03   0.11253651E+01   0.43854431E-03   0.66647107E+00   0.44438427E+00
  58.0000   0.77292532E-02  -0.10077759E+03   0.10891941E+01   0.43985798E-03   0.66646631E+00   0.44490065E+00
  59.0000   0.77998103E-02  -0.99695460E+02   0.10682260E+01   0.44080361E-03   0.66645890E+00   0.44448129E+00
  60.0000   0.78715213E-02  -0.98645996E+02   0.10380997E+01   0.44069188E-03   0.66645339E+00   0.44529684E+00
  61.0000   0.79479285E-02  -0.97616482E+02   0.10155856E+01   0.44236185E-03   0.66644644E+00   0.44494416E+00
  62.0000   0.80091706E-02  -0.96610421E+02   0.99177888E+00   0.44252966E-03   0.66643987E+00   0.44411855E+00
  63.0000   0.80821477E-02  -0.95626340E+02   0.97099659E+00   0.44303115E-03   0.66643263E+00   0.44466742E+00
  64.0000   0.81500944E-02  -0.94668135E+02   0.94818250E+00   0.44310649E-03   0.66642601E+00   0.44483828E+00
  65.0000   0.82096729E-02  -0.93729138E+02   0.93038810E+00   0.44327205E-03   0.66641821E+00   0.44429027E+00
  66.0000   0.82828321E-02  -0.92805948E+02   0.91083776E+00   0.44400654E-03   0.66641087E+00   0.44477615E+00
  67.0000   0.83402862E-02  -0.91903411E+02   0.89226817E+00   0.44436983E-03   0.66640334E+00   0.44406459E+00
  68.0000   0.84126767E-02  -0.91024495E+02   0.87329771E+00   0.44523656E-03   0.66639604E+00   0.44431539E+00
  69.0000   0.84743796E-02  -0.90162192E+02   0.85455627E+00   0.44489912E-03   0.66638876E+00   0.44426042E+00
  70.0000   0.85408019E-02  -0.89313094E+02   0.84011547E+00   0.44649618E-03   0.66638010E+00   0.44355930E+00
  71.0000   0.86023223E-02  -0.88484900E+02   0.82395653E+00   0.44563568E-03   0.66637209E+00   0.44447168E+00
  72.0000   0.86596215E-02  -0.87669902E+02   0.80475403E+00   0.44532495E-03   0.66636529E+00   0.44448228E+00
  73.0000   0.87170796E-02  -0.86869147E+02   0.79051658E+00   0.44383055E-03   0.66635670E+00   0.44495307E+00
  74.0000   0.87764900E-02  -0.86088603E+02   0.77318646E+00   0.44473803E-03   0.66634949E+00   0.44484199E+00
  75.0000   0.88362566E-02  -0.85327077E+02   0.75939218E+00   0.44529936E-03   0.66634090E+00   0.44433849E+00
  76.0000   0.88927213E-02  -0.84570920E+02   0.74640211E+00   0.44561622E-03   0.66633201E+00   0.44426102E+00
  77.0000   0.89481263E-02  -0.83831834E+02   0.73311916E+00   0.44483026E-03   0.66632326E+00   0.44440782E+00
  78.0000   0.90053110E-02  -0.83105217E+02   0.71899873E+00   0.44408232E-03   0.66631502E+00   0.44468816E+00
  79.0000   0.90653144E-02  -0.82389779E+02   0.70693132E+00   0.44396099E-03   0.66630582E+00   0.44492621E+00
  80.0000   0.91066229E-02  -0.81689866E+02   0.69583937E+00   0.44357100E-03   0.66629617E+00   0.44402804E+00
  81.0000   0.91714278E-02  -0.81003627E+02   0.68142376E+00   0.44411465E-03   0.66628839E+00   0.44406453E+00
  82.0000   0.92183015E-02  -0.80331214E+02   0.66904711E+00   0.44311934E-03   0.66627963E+00   0.44437487E+00
  83.0000   0.92696191E-02  -0.79665279E+02   0.65902677E+00   0.44207820E-03   0.66626954E+00   0.44450072E+00
  84.0000   0.93231052E-02  -0.79013789E+02   0.64703652E+00   0.44303272E-03   0.66626073E+00   0.44423553E+00
