 #written on  8Aug2024 at 19:16:26 
 #----------------------------------------------- MONTECARLO ---------------------------------------------------#
 # Temp      Magnetization     Energy_ave          C_M              Sus              U_E              U_M       #
 #--------------------------------------------------------------------------------------------------------------#
 270.0000   0.10945958E-01  -0.32984098E+03   0.17863658E+01   0.15863435E-03   0.66587052E+00   0.44310924E+00
 271.0000   0.10974727E-01  -0.32805292E+03   0.17995900E+01   0.15901262E-03   0.66584989E+00   0.44284042E+00
 272.0000   0.10995173E-01  -0.32624437E+03   0.18088332E+01   0.15927776E-03   0.66583038E+00   0.44244754E+00
 273.0000   0.11029460E-01  -0.32439123E+03   0.18158727E+01   0.15915151E-03   0.66581136E+00   0.44339614E+00
 274.0000   0.11054408E-01  -0.32255938E+03   0.18236525E+01   0.15958184E-03   0.66579154E+00   0.44292836E+00
 275.0000   0.11083227E-01  -0.32076519E+03   0.18390402E+01   0.15965789E-03   0.66576768E+00   0.44342265E+00
 276.0000   0.11108678E-01  -0.31890977E+03   0.18536498E+01   0.16047917E-03   0.66574346E+00   0.44241672E+00
 277.0000   0.11140216E-01  -0.31705285E+03   0.18571974E+01   0.16006521E-03   0.66572415E+00   0.44338952E+00
 278.0000   0.11173327E-01  -0.31518107E+03   0.18763345E+01   0.16011363E-03   0.66569614E+00   0.44397390E+00
 279.0000   0.11193592E-01  -0.31333245E+03   0.18822757E+01   0.16011754E-03   0.66567448E+00   0.44372055E+00
 280.0000   0.11223741E-01  -0.31142907E+03   0.18945572E+01   0.16072889E-03   0.66564840E+00   0.44327725E+00
 281.0000   0.11251851E-01  -0.30952434E+03   0.18992536E+01   0.16135415E-03   0.66562595E+00   0.44306895E+00
 282.0000   0.11285938E-01  -0.30759162E+03   0.19160060E+01   0.16126854E-03   0.66559608E+00   0.44372030E+00
 283.0000   0.11305072E-01  -0.30571999E+03   0.19213830E+01   0.16120483E-03   0.66557243E+00   0.44393485E+00
 284.0000   0.11337589E-01  -0.30378864E+03   0.19393600E+01   0.16165920E-03   0.66553996E+00   0.44347102E+00
 285.0000   0.11359727E-01  -0.30185734E+03   0.19485695E+01   0.16189640E-03   0.66551215E+00   0.44315657E+00
 286.0000   0.11389446E-01  -0.29989619E+03   0.19590697E+01   0.16257865E-03   0.66548239E+00   0.44262430E+00
 287.0000   0.11419688E-01  -0.29792222E+03   0.19732840E+01   0.16216138E-03   0.66544959E+00   0.44410494E+00
 288.0000   0.11458659E-01  -0.29595794E+03   0.19863678E+01   0.16290594E-03   0.66541674E+00   0.44326975E+00
 289.0000   0.11483742E-01  -0.29396707E+03   0.19946348E+01   0.16273293E-03   0.66538562E+00   0.44395313E+00
 290.0000   0.11511238E-01  -0.29196966E+03   0.20040952E+01   0.16307911E-03   0.66535285E+00   0.44369286E+00
 291.0000   0.11548224E-01  -0.28994519E+03   0.20082355E+01   0.16349095E-03   0.66532263E+00   0.44389543E+00
 292.0000   0.11572567E-01  -0.28795946E+03   0.20252251E+01   0.16361869E-03   0.66528319E+00   0.44409916E+00
 293.0000   0.11602013E-01  -0.28591718E+03   0.20358099E+01   0.16404809E-03   0.66524657E+00   0.44348530E+00
 294.0000   0.11623553E-01  -0.28385230E+03   0.20543062E+01   0.16364465E-03   0.66520237E+00   0.44436996E+00
 295.0000   0.11653121E-01  -0.28181889E+03   0.20614908E+01   0.16454367E-03   0.66516634E+00   0.44339636E+00
 296.0000   0.11691853E-01  -0.27973339E+03   0.20791712E+01   0.16474755E-03   0.66512034E+00   0.44389283E+00
 297.0000   0.11722623E-01  -0.27766912E+03   0.20827552E+01   0.16477802E-03   0.66508397E+00   0.44405977E+00
 298.0000   0.11740354E-01  -0.27555521E+03   0.21028967E+01   0.16528201E-03   0.66503345E+00   0.44385944E+00
 299.0000   0.11772602E-01  -0.27344900E+03   0.21120094E+01   0.16572616E-03   0.66498951E+00   0.44337050E+00
 300.0000   0.11799497E-01  -0.27135541E+03   0.21187222E+01   0.16536700E-03   0.66494684E+00   0.44441138E+00
 301.0000   0.11836223E-01  -0.26922357E+03   0.21290309E+01   0.16593532E-03   0.66489934E+00   0.44413195E+00
 302.0000   0.11865884E-01  -0.26708335E+03   0.21408815E+01   0.16649703E-03   0.66484922E+00   0.44376946E+00
 303.0000   0.11899511E-01  -0.26495771E+03   0.21491312E+01   0.16672663E-03   0.66480040E+00   0.44410898E+00
 304.0000   0.11921395E-01  -0.26275749E+03   0.21573532E+01   0.16671874E-03   0.66474904E+00   0.44421675E+00
 305.0000   0.11943734E-01  -0.26060595E+03   0.21617252E+01   0.16657124E-03   0.66470062E+00   0.44391862E+00
 306.0000   0.11978106E-01  -0.25846698E+03   0.21781363E+01   0.16745461E-03   0.66463989E+00   0.44388526E+00
 307.0000   0.12012693E-01  -0.25627390E+03   0.21827187E+01   0.16748550E-03   0.66458686E+00   0.44408612E+00
 308.0000   0.12038323E-01  -0.25408665E+03   0.21773716E+01   0.16787172E-03   0.66454205E+00   0.44404063E+00
 309.0000   0.12062386E-01  -0.25189317E+03   0.21780014E+01   0.16816681E-03   0.66449020E+00   0.44369099E+00
 310.0000   0.12110534E-01  -0.24971269E+03   0.21926605E+01   0.16863234E-03   0.66442235E+00   0.44418924E+00
 311.0000   0.12117837E-01  -0.24755762E+03   0.21769566E+01   0.16820042E-03   0.66438441E+00   0.44436636E+00
 312.0000   0.12150301E-01  -0.24535775E+03   0.21827914E+01   0.16870315E-03   0.66432223E+00   0.44406320E+00
 313.0000   0.12185317E-01  -0.24316417E+03   0.21800597E+01   0.16934634E-03   0.66426693E+00   0.44374895E+00
 314.0000   0.12203645E-01  -0.24100747E+03   0.21793539E+01   0.16949283E-03   0.66420893E+00   0.44367810E+00
 315.0000   0.12242940E-01  -0.23882419E+03   0.21734139E+01   0.17033748E-03   0.66415431E+00   0.44323896E+00
 316.0000   0.12269379E-01  -0.23664141E+03   0.21493305E+01   0.17040831E-03   0.66411968E+00   0.44337321E+00
 317.0000   0.12300169E-01  -0.23451951E+03   0.21342073E+01   0.16995489E-03   0.66407471E+00   0.44438796E+00
 318.0000   0.12327602E-01  -0.23236954E+03   0.21256324E+01   0.17033115E-03   0.66401985E+00   0.44433940E+00
 319.0000   0.12356744E-01  -0.23027552E+03   0.21102349E+01   0.17064392E-03   0.66397317E+00   0.44398205E+00
 320.0000   0.12377662E-01  -0.22819491E+03   0.20884507E+01   0.17103426E-03   0.66393438E+00   0.44335348E+00
 321.0000   0.12406522E-01  -0.22610242E+03   0.20670118E+01   0.17081658E-03   0.66389398E+00   0.44414525E+00
 322.0000   0.12438026E-01  -0.22404698E+03   0.20376596E+01   0.17121563E-03   0.66386556E+00   0.44399413E+00
 323.0000   0.12466470E-01  -0.22201535E+03   0.20178569E+01   0.17142354E-03   0.66382285E+00   0.44445994E+00
 324.0000   0.12490395E-01  -0.22003036E+03   0.19777620E+01   0.17187314E-03   0.66381177E+00   0.44374334E+00
 325.0000   0.12512785E-01  -0.21806231E+03   0.19509764E+01   0.17178782E-03   0.66378039E+00   0.44405118E+00
 326.0000   0.12545546E-01  -0.21612837E+03   0.19111216E+01   0.17160410E-03   0.66377012E+00   0.44493981E+00
 327.0000   0.12549909E-01  -0.21425689E+03   0.18842355E+01   0.17237291E-03   0.66374155E+00   0.44279028E+00
 328.0000   0.12594790E-01  -0.21236663E+03   0.18396048E+01   0.17225233E-03   0.66374129E+00   0.44435863E+00
 329.0000   0.12621415E-01  -0.21053212E+03   0.18075179E+01   0.17231406E-03   0.66372303E+00   0.44436149E+00
 330.0000   0.12645765E-01  -0.20876363E+03   0.17739891E+01   0.17295278E-03   0.66371024E+00   0.44418941E+00
 331.0000   0.12660070E-01  -0.20700008E+03   0.17407249E+01   0.17252915E-03   0.66369770E+00   0.44425031E+00
 332.0000   0.12686576E-01  -0.20530257E+03   0.17059723E+01   0.17265808E-03   0.66369035E+00   0.44463506E+00
 333.0000   0.12718393E-01  -0.20358594E+03   0.16688248E+01   0.17308287E-03   0.66368724E+00   0.44418609E+00
 334.0000   0.12736145E-01  -0.20188721E+03   0.16258420E+01   0.17298593E-03   0.66369661E+00   0.44432216E+00
 335.0000   0.12756239E-01  -0.20030658E+03   0.15947894E+01   0.17292207E-03   0.66368850E+00   0.44421115E+00
 336.0000   0.12789747E-01  -0.19870846E+03   0.15611284E+01   0.17320570E-03   0.66368633E+00   0.44465085E+00
 337.0000   0.12801525E-01  -0.19721862E+03   0.15242186E+01   0.17333321E-03   0.66369368E+00   0.44438187E+00
 338.0000   0.12838961E-01  -0.19571361E+03   0.14816576E+01   0.17385578E-03   0.66371524E+00   0.44406583E+00
 339.0000   0.12850719E-01  -0.19422890E+03   0.14486229E+01   0.17336137E-03   0.66371907E+00   0.44481238E+00
 340.0000   0.12878402E-01  -0.19278789E+03   0.14087859E+01   0.17371297E-03   0.66374010E+00   0.44415652E+00
 341.0000   0.12893319E-01  -0.19139333E+03   0.13789322E+01   0.17374121E-03   0.66374251E+00   0.44445116E+00
 342.0000   0.12912812E-01  -0.19003456E+03   0.13469206E+01   0.17407458E-03   0.66375150E+00   0.44367800E+00
 343.0000   0.12935082E-01  -0.18870163E+03   0.13179006E+01   0.17413158E-03   0.66375749E+00   0.44377939E+00
 344.0000   0.12966768E-01  -0.18741149E+03   0.12851082E+01   0.17384790E-03   0.66377340E+00   0.44493411E+00
 345.0000   0.12978418E-01  -0.18613856E+03   0.12609785E+01   0.17363042E-03   0.66377166E+00   0.44512436E+00
 346.0000   0.13010784E-01  -0.18488189E+03   0.12315156E+01   0.17441587E-03   0.66378449E+00   0.44423748E+00
 347.0000   0.13026070E-01  -0.18372093E+03   0.12029926E+01   0.17409145E-03   0.66379867E+00   0.44458250E+00
 348.0000   0.13034344E-01  -0.18249558E+03   0.11735937E+01   0.17417933E-03   0.66381426E+00   0.44412615E+00
 349.0000   0.13065101E-01  -0.18131667E+03   0.11488885E+01   0.17405142E-03   0.66382208E+00   0.44478625E+00
