 #written on 13Aug2024 at 06:50:08 
 #----------------------------------------------- MONTECARLO ---------------------------------------------------#
 # Temp      Magnetization     Energy_ave          C_M              Sus              U_E              U_M       #
 #--------------------------------------------------------------------------------------------------------------#
 200.0000   0.61020982E-02  -0.65321609E+03   0.14772317E+01   0.75005243E-04   0.66658466E+00   0.44208775E+00
 201.0000   0.61148712E-02  -0.65170287E+03   0.14900991E+01   0.75114570E-04   0.66658272E+00   0.44187110E+00
 202.0000   0.61403631E-02  -0.65020353E+03   0.15038885E+01   0.75084992E-04   0.66658071E+00   0.44281372E+00
 203.0000   0.61573294E-02  -0.64870242E+03   0.15225360E+01   0.75417306E-04   0.66657838E+00   0.44214458E+00
 204.0000   0.61771095E-02  -0.64716873E+03   0.15369223E+01   0.75363552E-04   0.66657623E+00   0.44260403E+00
 205.0000   0.61962284E-02  -0.64563105E+03   0.15501867E+01   0.75519174E-04   0.66657412E+00   0.44271623E+00
 206.0000   0.62177823E-02  -0.64407378E+03   0.15750397E+01   0.75557567E-04   0.66657126E+00   0.44281023E+00
 207.0000   0.62370711E-02  -0.64246823E+03   0.15897035E+01   0.75643349E-04   0.66656895E+00   0.44255543E+00
 208.0000   0.62515743E-02  -0.64087687E+03   0.16154275E+01   0.75455225E-04   0.66656590E+00   0.44337808E+00
 209.0000   0.62733726E-02  -0.63922422E+03   0.16313349E+01   0.75571124E-04   0.66656340E+00   0.44399885E+00
 210.0000   0.62938469E-02  -0.63759237E+03   0.16597835E+01   0.75939407E-04   0.66656005E+00   0.44281262E+00
 211.0000   0.63120008E-02  -0.63592447E+03   0.16787083E+01   0.75876884E-04   0.66655724E+00   0.44317772E+00
 212.0000   0.63327236E-02  -0.63423190E+03   0.16984130E+01   0.76103751E-04   0.66655430E+00   0.44304626E+00
 213.0000   0.63515528E-02  -0.63252238E+03   0.17193727E+01   0.76221198E-04   0.66655122E+00   0.44280089E+00
 214.0000   0.63651838E-02  -0.63078334E+03   0.17427229E+01   0.76116575E-04   0.66654789E+00   0.44358727E+00
 215.0000   0.63904707E-02  -0.62904735E+03   0.17546091E+01   0.76128965E-04   0.66654529E+00   0.44385367E+00
 216.0000   0.64093760E-02  -0.62727127E+03   0.17752766E+01   0.76443869E-04   0.66654200E+00   0.44351735E+00
 217.0000   0.64286083E-02  -0.62552932E+03   0.17800885E+01   0.76397616E-04   0.66653979E+00   0.44380315E+00
 218.0000   0.64539625E-02  -0.62371880E+03   0.17877643E+01   0.76726627E-04   0.66653732E+00   0.44371079E+00
 219.0000   0.64664539E-02  -0.62194250E+03   0.17887136E+01   0.76735868E-04   0.66653531E+00   0.44336371E+00
 220.0000   0.64894842E-02  -0.62019042E+03   0.17879791E+01   0.76903110E-04   0.66653341E+00   0.44373178E+00
 221.0000   0.65068878E-02  -0.61838047E+03   0.17884727E+01   0.76898414E-04   0.66653135E+00   0.44366956E+00
 222.0000   0.65279357E-02  -0.61660308E+03   0.17742220E+01   0.76973905E-04   0.66653043E+00   0.44423843E+00
 223.0000   0.65531359E-02  -0.61481651E+03   0.17707959E+01   0.77195750E-04   0.66652866E+00   0.44426147E+00
 224.0000   0.65634579E-02  -0.61307002E+03   0.17700590E+01   0.77135919E-04   0.66652668E+00   0.44439986E+00
 225.0000   0.65843371E-02  -0.61131624E+03   0.17592473E+01   0.77205145E-04   0.66652548E+00   0.44413799E+00
 226.0000   0.66042634E-02  -0.60951548E+03   0.17456792E+01   0.77470792E-04   0.66652448E+00   0.44379518E+00
 227.0000   0.66207129E-02  -0.60777829E+03   0.17251024E+01   0.77464088E-04   0.66652410E+00   0.44421491E+00
 228.0000   0.66450430E-02  -0.60609230E+03   0.17223420E+01   0.77576758E-04   0.66652226E+00   0.44420518E+00
 229.0000   0.66592637E-02  -0.60441832E+03   0.17063860E+01   0.77500807E-04   0.66652154E+00   0.44501703E+00
 230.0000   0.66742401E-02  -0.60269816E+03   0.16886035E+01   0.77646889E-04   0.66652097E+00   0.44379651E+00
 231.0000   0.66943372E-02  -0.60102229E+03   0.16800189E+01   0.77782412E-04   0.66651963E+00   0.44412056E+00
 232.0000   0.67211337E-02  -0.59935354E+03   0.16676196E+01   0.77933572E-04   0.66651862E+00   0.44479604E+00
 233.0000   0.67383296E-02  -0.59768357E+03   0.16558040E+01   0.78145776E-04   0.66651758E+00   0.44421661E+00
 234.0000   0.67597744E-02  -0.59604220E+03   0.16417577E+01   0.78197004E-04   0.66651676E+00   0.44466653E+00
 235.0000   0.67785989E-02  -0.59439783E+03   0.16341565E+01   0.78342472E-04   0.66651532E+00   0.44435833E+00
 236.0000   0.67943024E-02  -0.59279259E+03   0.16141790E+01   0.78653112E-04   0.66651507E+00   0.44326874E+00
 237.0000   0.68147810E-02  -0.59116099E+03   0.16003795E+01   0.78364906E-04   0.66651428E+00   0.44517354E+00
 238.0000   0.68325413E-02  -0.58957566E+03   0.15888212E+01   0.78730944E-04   0.66651329E+00   0.44415885E+00
 239.0000   0.68494217E-02  -0.58795957E+03   0.15722604E+01   0.78579513E-04   0.66651276E+00   0.44458480E+00
 240.0000   0.68666544E-02  -0.58641636E+03   0.15654876E+01   0.78872396E-04   0.66651132E+00   0.44385285E+00
 241.0000   0.68867007E-02  -0.58486488E+03   0.15478505E+01   0.78903753E-04   0.66651097E+00   0.44442999E+00
 242.0000   0.69015254E-02  -0.58331448E+03   0.15417295E+01   0.78860119E-04   0.66650946E+00   0.44435762E+00
 243.0000   0.69204199E-02  -0.58177009E+03   0.15414521E+01   0.79010705E-04   0.66650735E+00   0.44425427E+00
 244.0000   0.69444140E-02  -0.58023883E+03   0.15339282E+01   0.79215491E-04   0.66650597E+00   0.44458900E+00
 245.0000   0.69610257E-02  -0.57869913E+03   0.15133841E+01   0.79286639E-04   0.66650597E+00   0.44447359E+00
 246.0000   0.69725078E-02  -0.57718696E+03   0.15051035E+01   0.79117097E-04   0.66650470E+00   0.44467834E+00
 247.0000   0.69888319E-02  -0.57569586E+03   0.15061352E+01   0.79405054E-04   0.66650241E+00   0.44389953E+00
 248.0000   0.70087205E-02  -0.57418285E+03   0.14893885E+01   0.79317904E-04   0.66650206E+00   0.44422202E+00
 249.0000   0.70241097E-02  -0.57270629E+03   0.14838491E+01   0.79304068E-04   0.66650050E+00   0.44506192E+00
 250.0000   0.70462615E-02  -0.57122198E+03   0.14758396E+01   0.79558841E-04   0.66649919E+00   0.44475211E+00
 251.0000   0.70637062E-02  -0.56973387E+03   0.14700009E+01   0.79685824E-04   0.66649764E+00   0.44404927E+00
 252.0000   0.70777714E-02  -0.56827521E+03   0.14619131E+01   0.79544110E-04   0.66649636E+00   0.44496731E+00
 253.0000   0.70948685E-02  -0.56680208E+03   0.14541123E+01   0.79732754E-04   0.66649503E+00   0.44456566E+00
 254.0000   0.71158905E-02  -0.56535926E+03   0.14456931E+01   0.79813085E-04   0.66649381E+00   0.44475752E+00
 255.0000   0.71304476E-02  -0.56392374E+03   0.14356663E+01   0.79849564E-04   0.66649277E+00   0.44474960E+00
 256.0000   0.71498757E-02  -0.56249010E+03   0.14255060E+01   0.79894449E-04   0.66649175E+00   0.44505891E+00
 257.0000   0.71630801E-02  -0.56107422E+03   0.14207986E+01   0.80164027E-04   0.66649008E+00   0.44380152E+00
 258.0000   0.71819294E-02  -0.55966358E+03   0.14136512E+01   0.80234800E-04   0.66648870E+00   0.44420288E+00
 259.0000   0.72023129E-02  -0.55826691E+03   0.14077092E+01   0.80267642E-04   0.66648718E+00   0.44426496E+00
 260.0000   0.72155265E-02  -0.55687378E+03   0.14016621E+01   0.80329337E-04   0.66648568E+00   0.44400542E+00
 261.0000   0.72370015E-02  -0.55544024E+03   0.13922954E+01   0.80338519E-04   0.66648455E+00   0.44484469E+00
 262.0000   0.72529007E-02  -0.55405267E+03   0.13859285E+01   0.80301201E-04   0.66648307E+00   0.44504410E+00
 263.0000   0.72644131E-02  -0.55267306E+03   0.13822172E+01   0.80469289E-04   0.66648125E+00   0.44395101E+00
 264.0000   0.72868184E-02  -0.55130306E+03   0.13714897E+01   0.80631456E-04   0.66648036E+00   0.44424145E+00
 265.0000   0.73028267E-02  -0.54992007E+03   0.13669949E+01   0.80728133E-04   0.66647862E+00   0.44409055E+00
 266.0000   0.73176323E-02  -0.54857934E+03   0.13609300E+01   0.80597828E-04   0.66647712E+00   0.44477746E+00
 267.0000   0.73352196E-02  -0.54720802E+03   0.13515703E+01   0.80668180E-04   0.66647606E+00   0.44462681E+00
 268.0000   0.73506337E-02  -0.54585708E+03   0.13424820E+01   0.80863997E-04   0.66647496E+00   0.44437873E+00
 269.0000   0.73685190E-02  -0.54453105E+03   0.13370650E+01   0.80757767E-04   0.66647337E+00   0.44455028E+00
 270.0000   0.73837191E-02  -0.54318466E+03   0.13359557E+01   0.81023647E-04   0.66647113E+00   0.44446971E+00
 271.0000   0.74001836E-02  -0.54185542E+03   0.13229738E+01   0.80917710E-04   0.66647065E+00   0.44425864E+00
 272.0000   0.74124793E-02  -0.54054447E+03   0.13240708E+01   0.80997434E-04   0.66646806E+00   0.44433097E+00
 273.0000   0.74293871E-02  -0.53921751E+03   0.13168676E+01   0.81110178E-04   0.66646672E+00   0.44411762E+00
 274.0000   0.74446305E-02  -0.53790696E+03   0.13077747E+01   0.81190257E-04   0.66646567E+00   0.44415628E+00
 275.0000   0.74581122E-02  -0.53659768E+03   0.13042552E+01   0.81070511E-04   0.66646376E+00   0.44412944E+00
 276.0000   0.74803458E-02  -0.53532286E+03   0.12932801E+01   0.81210577E-04   0.66646302E+00   0.44453455E+00
 277.0000   0.74960008E-02  -0.53401661E+03   0.12884481E+01   0.81150026E-04   0.66646130E+00   0.44487748E+00
 278.0000   0.75115258E-02  -0.53272963E+03   0.12811393E+01   0.81655639E-04   0.66646001E+00   0.44323101E+00
 279.0000   0.75256766E-02  -0.53144071E+03   0.12745486E+01   0.81391104E-04   0.66645859E+00   0.44436162E+00
 280.0000   0.75413389E-02  -0.53019007E+03   0.12718468E+01   0.81462518E-04   0.66645655E+00   0.44384492E+00
 281.0000   0.75576004E-02  -0.52889624E+03   0.12632658E+01   0.81580959E-04   0.66645544E+00   0.44390206E+00
 282.0000   0.75715661E-02  -0.52766593E+03   0.12589492E+01   0.81724071E-04   0.66645368E+00   0.44397442E+00
 283.0000   0.75884188E-02  -0.52638685E+03   0.12501584E+01   0.81483361E-04   0.66645262E+00   0.44475295E+00
 284.0000   0.75992609E-02  -0.52514692E+03   0.12462643E+01   0.81661229E-04   0.66645075E+00   0.44386344E+00
 285.0000   0.76221226E-02  -0.52388790E+03   0.12422391E+01   0.81835553E-04   0.66644891E+00   0.44445820E+00
 286.0000   0.76408526E-02  -0.52265676E+03   0.12350686E+01   0.81817121E-04   0.66644759E+00   0.44431500E+00
 287.0000   0.76470771E-02  -0.52142975E+03   0.12268050E+01   0.81716539E-04   0.66644651E+00   0.44394818E+00
 288.0000   0.76699484E-02  -0.52020253E+03   0.12208041E+01   0.81795072E-04   0.66644500E+00   0.44467094E+00
 289.0000   0.76844168E-02  -0.51901033E+03   0.12180249E+01   0.81806354E-04   0.66644296E+00   0.44472948E+00
 290.0000   0.76999111E-02  -0.51777636E+03   0.12082805E+01   0.82013976E-04   0.66644215E+00   0.44393569E+00
 291.0000   0.77137358E-02  -0.51657887E+03   0.12005612E+01   0.81999108E-04   0.66644100E+00   0.44407137E+00
 292.0000   0.77301171E-02  -0.51535228E+03   0.11990169E+01   0.82015583E-04   0.66643864E+00   0.44459712E+00
 293.0000   0.77426708E-02  -0.51417523E+03   0.11936060E+01   0.82166808E-04   0.66643707E+00   0.44401144E+00
 294.0000   0.77576861E-02  -0.51298406E+03   0.11871884E+01   0.82149926E-04   0.66643568E+00   0.44424711E+00
 295.0000   0.77762060E-02  -0.51179115E+03   0.11801818E+01   0.82126507E-04   0.66643442E+00   0.44464098E+00
 296.0000   0.77867236E-02  -0.51061279E+03   0.11729975E+01   0.82113677E-04   0.66643318E+00   0.44426562E+00
 297.0000   0.78032242E-02  -0.50944098E+03   0.11729774E+01   0.82098355E-04   0.66643052E+00   0.44439263E+00
 298.0000   0.78201751E-02  -0.50828446E+03   0.11651478E+01   0.82267326E-04   0.66642944E+00   0.44416221E+00
 299.0000   0.78340111E-02  -0.50709753E+03   0.11617729E+01   0.82188154E-04   0.66642741E+00   0.44472920E+00
