 #written on  4Sep2024 at 19:02:01 
 #----------------------------------------------- MONTECARLO ---------------------------------------------------#
 # Temp      Magnetization     Energy_ave          C_M              Sus              U_E              U_M       #
 #--------------------------------------------------------------------------------------------------------------#
 276.0000   0.68998552E+00  -0.38142434E+03   0.15715334E+01   0.68779141E-03   0.66624392E+00   0.66646186E+00
 277.0000   0.68816749E+00  -0.37984741E+03   0.15753939E+01   0.69560658E-03   0.66623627E+00   0.66645770E+00
 278.0000   0.68635766E+00  -0.37827721E+03   0.15833751E+01   0.70453157E-03   0.66622732E+00   0.66645313E+00
 279.0000   0.68452512E+00  -0.37669719E+03   0.15864219E+01   0.71388768E-03   0.66621964E+00   0.66644837E+00
 280.0000   0.68264875E+00  -0.37509044E+03   0.15959853E+01   0.72472573E-03   0.66620983E+00   0.66644304E+00
 281.0000   0.68080377E+00  -0.37350719E+03   0.15975208E+01   0.73079437E-03   0.66620221E+00   0.66643915E+00
 282.0000   0.67892098E+00  -0.37189648E+03   0.16008211E+01   0.73911778E-03   0.66619385E+00   0.66643444E+00
 283.0000   0.67705611E+00  -0.37031032E+03   0.16136885E+01   0.75227162E-03   0.66618257E+00   0.66642819E+00
 284.0000   0.67516018E+00  -0.36869075E+03   0.16200167E+01   0.76177444E-03   0.66617292E+00   0.66642296E+00
 285.0000   0.67324360E+00  -0.36706615E+03   0.16261544E+01   0.77191844E-03   0.66616312E+00   0.66641743E+00
 286.0000   0.67129649E+00  -0.36543245E+03   0.16233490E+01   0.77766747E-03   0.66615593E+00   0.66641324E+00
 287.0000   0.66935981E+00  -0.36380758E+03   0.16358559E+01   0.79182557E-03   0.66614374E+00   0.66640623E+00
 288.0000   0.66740729E+00  -0.36216344E+03   0.16373461E+01   0.79913191E-03   0.66613485E+00   0.66640137E+00
 289.0000   0.66545249E+00  -0.36052404E+03   0.16412355E+01   0.80802920E-03   0.66612499E+00   0.66639591E+00
 290.0000   0.66348128E+00  -0.35887698E+03   0.16507068E+01   0.82072543E-03   0.66611310E+00   0.66638910E+00
 291.0000   0.66149723E+00  -0.35723816E+03   0.16536650E+01   0.83021290E-03   0.66610314E+00   0.66638322E+00
 292.0000   0.65947551E+00  -0.35556510E+03   0.16608516E+01   0.84164669E-03   0.66609143E+00   0.66637656E+00
 293.0000   0.65746848E+00  -0.35391455E+03   0.16658699E+01   0.85261901E-03   0.66608031E+00   0.66636996E+00
 294.0000   0.65545173E+00  -0.35224183E+03   0.16748212E+01   0.86492487E-03   0.66606742E+00   0.66636281E+00
 295.0000   0.65338401E+00  -0.35054456E+03   0.16777226E+01   0.87413997E-03   0.66605653E+00   0.66635660E+00
 296.0000   0.65133377E+00  -0.34887452E+03   0.16871299E+01   0.88836354E-03   0.66604299E+00   0.66634850E+00
 297.0000   0.64925576E+00  -0.34718523E+03   0.16909589E+01   0.89867167E-03   0.66603119E+00   0.66634166E+00
 298.0000   0.64717607E+00  -0.34548996E+03   0.16971554E+01   0.91236314E-03   0.66601828E+00   0.66633347E+00
 299.0000   0.64508970E+00  -0.34379757E+03   0.17066083E+01   0.92582694E-03   0.66600387E+00   0.66632525E+00
 300.0000   0.64296107E+00  -0.34208676E+03   0.17100426E+01   0.93626403E-03   0.66599138E+00   0.66631796E+00
 301.0000   0.64081149E+00  -0.34036113E+03   0.17211088E+01   0.95326024E-03   0.66597545E+00   0.66630807E+00
 302.0000   0.63865666E+00  -0.33864580E+03   0.17255038E+01   0.96527472E-03   0.66596211E+00   0.66629991E+00
 303.0000   0.63647612E+00  -0.33690079E+03   0.17279483E+01   0.97672205E-03   0.66594910E+00   0.66629180E+00
 304.0000   0.63427410E+00  -0.33515208E+03   0.17310144E+01   0.98865200E-03   0.66593542E+00   0.66628331E+00
 305.0000   0.63212652E+00  -0.33344541E+03   0.17421334E+01   0.10045322E-02   0.66591837E+00   0.66627324E+00
 306.0000   0.62987937E+00  -0.33168380E+03   0.17504022E+01   0.10213917E-02   0.66590180E+00   0.66626246E+00
 307.0000   0.62765753E+00  -0.32993662E+03   0.17584385E+01   0.10372915E-02   0.66588510E+00   0.66625195E+00
 308.0000   0.62542555E+00  -0.32819748E+03   0.17697053E+01   0.10532753E-02   0.66586657E+00   0.66624119E+00
 309.0000   0.62311951E+00  -0.32639898E+03   0.17696909E+01   0.10669730E-02   0.66585246E+00   0.66623106E+00
 310.0000   0.62083443E+00  -0.32462241E+03   0.17784972E+01   0.10830942E-02   0.66583412E+00   0.66621981E+00
 311.0000   0.61857628E+00  -0.32287852E+03   0.17869148E+01   0.11005466E-02   0.66581571E+00   0.66620784E+00
 312.0000   0.61620137E+00  -0.32105644E+03   0.17929815E+01   0.11144087E-02   0.66579754E+00   0.66619698E+00
 313.0000   0.61388572E+00  -0.31927821E+03   0.17968767E+01   0.11311244E-02   0.66578026E+00   0.66618482E+00
 314.0000   0.61150901E+00  -0.31746347E+03   0.18076611E+01   0.11496725E-02   0.66575911E+00   0.66617160E+00
 315.0000   0.60910676E+00  -0.31563803E+03   0.18217696E+01   0.11723038E-02   0.66573550E+00   0.66615626E+00
 316.0000   0.60674179E+00  -0.31384964E+03   0.18203890E+01   0.11844075E-02   0.66571971E+00   0.66614538E+00
 317.0000   0.60428098E+00  -0.31199991E+03   0.18313517E+01   0.12053104E-02   0.66569653E+00   0.66613020E+00
 318.0000   0.60180122E+00  -0.31015562E+03   0.18367407E+01   0.12240235E-02   0.66567586E+00   0.66611561E+00
 319.0000   0.59934898E+00  -0.30831393E+03   0.18392985E+01   0.12387580E-02   0.66565622E+00   0.66610270E+00
 320.0000   0.59687243E+00  -0.30647901E+03   0.18565161E+01   0.12671962E-02   0.66562818E+00   0.66608319E+00
 321.0000   0.59438878E+00  -0.30463776E+03   0.18543417E+01   0.12816087E-02   0.66561024E+00   0.66606976E+00
 322.0000   0.59183414E+00  -0.30276267E+03   0.18683762E+01   0.13042569E-02   0.66558236E+00   0.66605213E+00
 323.0000   0.58933413E+00  -0.30091612E+03   0.18770789E+01   0.13286483E-02   0.66555715E+00   0.66603346E+00
 324.0000   0.58672441E+00  -0.29903783E+03   0.18800783E+01   0.13469137E-02   0.66553439E+00   0.66601703E+00
 325.0000   0.58406965E+00  -0.29711599E+03   0.18916961E+01   0.13715276E-02   0.66550566E+00   0.66599718E+00
 326.0000   0.58151004E+00  -0.29526161E+03   0.19007305E+01   0.13968588E-02   0.66547803E+00   0.66597669E+00
 327.0000   0.57885186E+00  -0.29335067E+03   0.19079959E+01   0.14201104E-02   0.66545069E+00   0.66595668E+00
 328.0000   0.57617973E+00  -0.29144068E+03   0.19105638E+01   0.14423004E-02   0.66542542E+00   0.66593673E+00
 329.0000   0.57347548E+00  -0.28952451E+03   0.19222299E+01   0.14691178E-02   0.66539372E+00   0.66591394E+00
 330.0000   0.57075597E+00  -0.28759555E+03   0.19283370E+01   0.14910840E-02   0.66536446E+00   0.66589303E+00
 331.0000   0.56801503E+00  -0.28567266E+03   0.19394444E+01   0.15226102E-02   0.66533121E+00   0.66586667E+00
 332.0000   0.56515329E+00  -0.28368586E+03   0.19482391E+01   0.15502353E-02   0.66529850E+00   0.66584164E+00
 333.0000   0.56239220E+00  -0.28176429E+03   0.19521394E+01   0.15754409E-02   0.66526850E+00   0.66581748E+00
 334.0000   0.55958687E+00  -0.27981473E+03   0.19623043E+01   0.16060070E-02   0.66523296E+00   0.66578973E+00
 335.0000   0.55672316E+00  -0.27785721E+03   0.19725780E+01   0.16344363E-02   0.66519668E+00   0.66576254E+00
 336.0000   0.55382777E+00  -0.27587408E+03   0.19817174E+01   0.16694814E-02   0.66515952E+00   0.66573073E+00
 337.0000   0.55086147E+00  -0.27385865E+03   0.19862239E+01   0.16933358E-02   0.66512473E+00   0.66570439E+00
 338.0000   0.54788514E+00  -0.27186078E+03   0.19923277E+01   0.17263408E-02   0.66508815E+00   0.66567214E+00
 339.0000   0.54489262E+00  -0.26984688E+03   0.20097964E+01   0.17656217E-02   0.66504074E+00   0.66563536E+00
 340.0000   0.54195187E+00  -0.26787860E+03   0.20057335E+01   0.17886999E-02   0.66501064E+00   0.66560769E+00
 341.0000   0.53890444E+00  -0.26586338E+03   0.20308392E+01   0.18371559E-02   0.66495434E+00   0.66556348E+00
 342.0000   0.53585539E+00  -0.26386132E+03   0.20327576E+01   0.18705182E-02   0.66491653E+00   0.66552754E+00
 343.0000   0.53272409E+00  -0.26180689E+03   0.20386260E+01   0.19080700E-02   0.66487328E+00   0.66548760E+00
 344.0000   0.52957694E+00  -0.25975722E+03   0.20464166E+01   0.19446506E-02   0.66482748E+00   0.66544743E+00
 345.0000   0.52635727E+00  -0.25768070E+03   0.20568891E+01   0.19841019E-02   0.66477753E+00   0.66540402E+00
 346.0000   0.52318202E+00  -0.25565345E+03   0.20685227E+01   0.20316711E-02   0.66472554E+00   0.66535455E+00
 347.0000   0.51990808E+00  -0.25357102E+03   0.20823061E+01   0.20782908E-02   0.66466930E+00   0.66530407E+00
 348.0000   0.51660247E+00  -0.25148005E+03   0.20852413E+01   0.21144678E-02   0.66462111E+00   0.66525833E+00
 349.0000   0.51325549E+00  -0.24937690E+03   0.20981386E+01   0.21639406E-02   0.66456211E+00   0.66520299E+00
 350.0000   0.50987215E+00  -0.24727828E+03   0.21061611E+01   0.22108954E-02   0.66450560E+00   0.66514715E+00
 351.0000   0.50649395E+00  -0.24517807E+03   0.21108498E+01   0.22568530E-02   0.66445159E+00   0.66509091E+00
 352.0000   0.50302346E+00  -0.24305125E+03   0.21255190E+01   0.23112291E-02   0.66438332E+00   0.66502599E+00
 353.0000   0.49954872E+00  -0.24093066E+03   0.21260688E+01   0.23548035E-02   0.66433006E+00   0.66496796E+00
 354.0000   0.49595848E+00  -0.23877802E+03   0.21519751E+01   0.24287682E-02   0.66424539E+00   0.66488450E+00
 355.0000   0.49237257E+00  -0.23662494E+03   0.21549701E+01   0.24819153E-02   0.66418388E+00   0.66481431E+00
 356.0000   0.48870778E+00  -0.23445163E+03   0.21662279E+01   0.25445542E-02   0.66411050E+00   0.66473415E+00
 357.0000   0.48502173E+00  -0.23227437E+03   0.21723642E+01   0.25940914E-02   0.66404007E+00   0.66466118E+00
 358.0000   0.48132783E+00  -0.23011446E+03   0.21868025E+01   0.26691682E-02   0.66395902E+00   0.66456729E+00
 359.0000   0.47751387E+00  -0.22792244E+03   0.21983232E+01   0.27346172E-02   0.66387615E+00   0.66447532E+00
 360.0000   0.47373362E+00  -0.22573729E+03   0.22062220E+01   0.28051070E-02   0.66379633E+00   0.66437780E+00
 361.0000   0.46981437E+00  -0.22351449E+03   0.22218825E+01   0.28855594E-02   0.66370280E+00   0.66426780E+00
 362.0000   0.46594687E+00  -0.22133026E+03   0.22186419E+01   0.29431326E-02   0.66363094E+00   0.66417210E+00
 363.0000   0.46183663E+00  -0.21904821E+03   0.22415757E+01   0.30398305E-02   0.66351837E+00   0.66403838E+00
 364.0000   0.45779486E+00  -0.21681318E+03   0.22483505E+01   0.31196403E-02   0.66342646E+00   0.66391559E+00
 365.0000   0.45371814E+00  -0.21459507E+03   0.22573897E+01   0.32026535E-02   0.66332831E+00   0.66378538E+00
 366.0000   0.44949642E+00  -0.21230367E+03   0.22796379E+01   0.33105172E-02   0.66320399E+00   0.66362566E+00
 367.0000   0.44518101E+00  -0.21000680E+03   0.22843139E+01   0.33979654E-02   0.66310098E+00   0.66347710E+00
 368.0000   0.44096595E+00  -0.20775558E+03   0.22956652E+01   0.34990913E-02   0.66298616E+00   0.66331289E+00
 369.0000   0.43653135E+00  -0.20543784E+03   0.23022034E+01   0.35981020E-02   0.66287299E+00   0.66314159E+00
 370.0000   0.43207357E+00  -0.20312957E+03   0.23097920E+01   0.37067194E-02   0.66275267E+00   0.66295317E+00
 371.0000   0.42765980E+00  -0.20087572E+03   0.23281492E+01   0.38322689E-02   0.66261210E+00   0.66274037E+00
 372.0000   0.42301313E+00  -0.19852490E+03   0.23284523E+01   0.39379989E-02   0.66249243E+00   0.66253570E+00
 373.0000   0.41824180E+00  -0.19615097E+03   0.23454356E+01   0.40716138E-02   0.66233767E+00   0.66228960E+00
 374.0000   0.41348182E+00  -0.19379829E+03   0.23605847E+01   0.42239320E-02   0.66217957E+00   0.66201337E+00
 375.0000   0.40850526E+00  -0.19138343E+03   0.23707114E+01   0.43706881E-02   0.66202239E+00   0.66172617E+00
