 #written on 15Sep2024 at 19:32:02 
 #----------------------------------------------- MONTECARLO ---------------------------------------------------#
 # Temp      Magnetization     Energy_ave          C_M              Sus              U_E              U_M       #
 #--------------------------------------------------------------------------------------------------------------#
 130.0000   0.73035614E-02  -0.33182112E+03   0.13527784E+01   0.17720530E-03   0.66655233E+00   0.44349873E+00
 131.0000   0.73345698E-02  -0.33046820E+03   0.13664028E+01   0.17732899E-03   0.66654843E+00   0.44361116E+00
 132.0000   0.73673887E-02  -0.32908739E+03   0.13690623E+01   0.17739481E-03   0.66654538E+00   0.44387352E+00
 133.0000   0.74105954E-02  -0.32772599E+03   0.13757548E+01   0.17807209E-03   0.66654191E+00   0.44412364E+00
 134.0000   0.74465823E-02  -0.32634401E+03   0.13946558E+01   0.17878100E-03   0.66653719E+00   0.44400706E+00
 135.0000   0.74742072E-02  -0.32495382E+03   0.14053405E+01   0.17851777E-03   0.66653312E+00   0.44432451E+00
 136.0000   0.75087008E-02  -0.32353148E+03   0.14094834E+01   0.17908881E-03   0.66652953E+00   0.44376500E+00
 137.0000   0.75482211E-02  -0.32211617E+03   0.14227091E+01   0.17976094E-03   0.66652497E+00   0.44328033E+00
 138.0000   0.75749924E-02  -0.32069017E+03   0.14331672E+01   0.17946169E-03   0.66652057E+00   0.44371107E+00
 139.0000   0.76116870E-02  -0.31926051E+03   0.14387178E+01   0.17980699E-03   0.66651652E+00   0.44434305E+00
 140.0000   0.76481257E-02  -0.31779918E+03   0.14559201E+01   0.18019932E-03   0.66651111E+00   0.44369304E+00
 141.0000   0.76812258E-02  -0.31633636E+03   0.14651927E+01   0.18073194E-03   0.66650640E+00   0.44374255E+00
 142.0000   0.77093518E-02  -0.31487788E+03   0.14780742E+01   0.18077810E-03   0.66650118E+00   0.44419307E+00
 143.0000   0.77520778E-02  -0.31338949E+03   0.14929372E+01   0.18136850E-03   0.66649553E+00   0.44408437E+00
 144.0000   0.77798431E-02  -0.31188847E+03   0.15033158E+01   0.18097507E-03   0.66649025E+00   0.44430622E+00
 145.0000   0.78162562E-02  -0.31038313E+03   0.15179342E+01   0.18171872E-03   0.66648429E+00   0.44451378E+00
 146.0000   0.78498053E-02  -0.30886474E+03   0.15249727E+01   0.18214343E-03   0.66647908E+00   0.44407828E+00
 147.0000   0.78832680E-02  -0.30733504E+03   0.15436609E+01   0.18188621E-03   0.66647225E+00   0.44459016E+00
 148.0000   0.79209838E-02  -0.30576328E+03   0.15596838E+01   0.18259252E-03   0.66646552E+00   0.44445472E+00
 149.0000   0.79598539E-02  -0.30421160E+03   0.15672515E+01   0.18343789E-03   0.66645971E+00   0.44387124E+00
 150.0000   0.79966900E-02  -0.30262227E+03   0.15846151E+01   0.18383553E-03   0.66645236E+00   0.44466289E+00
 151.0000   0.80224353E-02  -0.30103299E+03   0.15884163E+01   0.18412065E-03   0.66644666E+00   0.44405549E+00
 152.0000   0.80609694E-02  -0.29944261E+03   0.16022790E+01   0.18445843E-03   0.66643940E+00   0.44384660E+00
 153.0000   0.80992200E-02  -0.29783706E+03   0.16116811E+01   0.18492535E-03   0.66643253E+00   0.44434531E+00
 154.0000   0.81375020E-02  -0.29620355E+03   0.16254113E+01   0.18570754E-03   0.66642481E+00   0.44413536E+00
 155.0000   0.81597674E-02  -0.29457036E+03   0.16319180E+01   0.18516913E-03   0.66641796E+00   0.44424708E+00
 156.0000   0.82054603E-02  -0.29291268E+03   0.16515762E+01   0.18574402E-03   0.66640882E+00   0.44430161E+00
 157.0000   0.82368973E-02  -0.29127125E+03   0.16565184E+01   0.18675526E-03   0.66640175E+00   0.44335624E+00
 158.0000   0.82663014E-02  -0.28957635E+03   0.16686317E+01   0.18650190E-03   0.66639321E+00   0.44429380E+00
 159.0000   0.83030077E-02  -0.28789519E+03   0.16789350E+01   0.18703232E-03   0.66638476E+00   0.44462080E+00
 160.0000   0.83402289E-02  -0.28625337E+03   0.16759265E+01   0.18745267E-03   0.66637842E+00   0.44412084E+00
 161.0000   0.83739009E-02  -0.28456649E+03   0.16804411E+01   0.18797983E-03   0.66637055E+00   0.44398175E+00
 162.0000   0.84106907E-02  -0.28289280E+03   0.16804146E+01   0.18782001E-03   0.66636331E+00   0.44508639E+00
 163.0000   0.84452293E-02  -0.28121102E+03   0.16823080E+01   0.18877381E-03   0.66635553E+00   0.44375239E+00
 164.0000   0.84858253E-02  -0.27951623E+03   0.16822168E+01   0.18935482E-03   0.66634787E+00   0.44435848E+00
 165.0000   0.85099874E-02  -0.27781884E+03   0.16760452E+01   0.18980350E-03   0.66634121E+00   0.44389554E+00
 166.0000   0.85495916E-02  -0.27612729E+03   0.16864762E+01   0.18965596E-03   0.66633112E+00   0.44446263E+00
 167.0000   0.85800573E-02  -0.27442174E+03   0.16848243E+01   0.19066308E-03   0.66632314E+00   0.44350664E+00
 168.0000   0.86168111E-02  -0.27276846E+03   0.16766060E+01   0.19010888E-03   0.66631651E+00   0.44459224E+00
 169.0000   0.86525372E-02  -0.27108482E+03   0.16756950E+01   0.19151156E-03   0.66630807E+00   0.44374475E+00
 170.0000   0.86880428E-02  -0.26942866E+03   0.16677528E+01   0.19139100E-03   0.66630114E+00   0.44424346E+00
 171.0000   0.87189620E-02  -0.26774073E+03   0.16600366E+01   0.19114745E-03   0.66629386E+00   0.44491348E+00
 172.0000   0.87456795E-02  -0.26610508E+03   0.16430668E+01   0.19174344E-03   0.66628875E+00   0.44443786E+00
 173.0000   0.87916346E-02  -0.26444195E+03   0.16377156E+01   0.19200057E-03   0.66628078E+00   0.44548188E+00
 174.0000   0.88151978E-02  -0.26282287E+03   0.16277193E+01   0.19240932E-03   0.66627384E+00   0.44416251E+00
 175.0000   0.88515115E-02  -0.26119016E+03   0.16134345E+01   0.19300307E-03   0.66626787E+00   0.44437119E+00
 176.0000   0.88843868E-02  -0.25959897E+03   0.16069627E+01   0.19351835E-03   0.66625995E+00   0.44405665E+00
 177.0000   0.89151574E-02  -0.25799805E+03   0.15899339E+01   0.19347481E-03   0.66625460E+00   0.44449987E+00
 178.0000   0.89498519E-02  -0.25642874E+03   0.15683600E+01   0.19376245E-03   0.66625056E+00   0.44467683E+00
 179.0000   0.89781210E-02  -0.25489189E+03   0.15575542E+01   0.19424354E-03   0.66624371E+00   0.44437852E+00
 180.0000   0.90135527E-02  -0.25332330E+03   0.15402935E+01   0.19432450E-03   0.66623848E+00   0.44488533E+00
 181.0000   0.90439535E-02  -0.25177608E+03   0.15274731E+01   0.19501854E-03   0.66623197E+00   0.44382714E+00
 182.0000   0.90807676E-02  -0.25026915E+03   0.15156436E+01   0.19558064E-03   0.66622532E+00   0.44415076E+00
 183.0000   0.91114083E-02  -0.24873421E+03   0.15066636E+01   0.19567082E-03   0.66621755E+00   0.44401517E+00
 184.0000   0.91473145E-02  -0.24723943E+03   0.14860572E+01   0.19602984E-03   0.66621345E+00   0.44426600E+00
 185.0000   0.91701073E-02  -0.24577741E+03   0.14689153E+01   0.19540393E-03   0.66620843E+00   0.44525794E+00
 186.0000   0.92079683E-02  -0.24430850E+03   0.14542035E+01   0.19657238E-03   0.66620247E+00   0.44403624E+00
 187.0000   0.92283080E-02  -0.24286821E+03   0.14389429E+01   0.19672412E-03   0.66619689E+00   0.44390155E+00
 188.0000   0.92637943E-02  -0.24142184E+03   0.14266553E+01   0.19657355E-03   0.66619021E+00   0.44458145E+00
 189.0000   0.92953578E-02  -0.24001711E+03   0.14149132E+01   0.19718265E-03   0.66618355E+00   0.44400551E+00
 190.0000   0.93199112E-02  -0.23860061E+03   0.13952335E+01   0.19692706E-03   0.66617951E+00   0.44459870E+00
 191.0000   0.93486651E-02  -0.23721873E+03   0.13834692E+01   0.19719394E-03   0.66617276E+00   0.44486237E+00
 192.0000   0.93810427E-02  -0.23586066E+03   0.13643730E+01   0.19781425E-03   0.66616887E+00   0.44379975E+00
 193.0000   0.94077781E-02  -0.23448861E+03   0.13535370E+01   0.19771432E-03   0.66616177E+00   0.44395699E+00
 194.0000   0.94444986E-02  -0.23314066E+03   0.13341904E+01   0.19796149E-03   0.66615794E+00   0.44475510E+00
 195.0000   0.94675632E-02  -0.23181585E+03   0.13218812E+01   0.19779900E-03   0.66615155E+00   0.44504676E+00
 196.0000   0.94987262E-02  -0.23049554E+03   0.13094456E+01   0.19760904E-03   0.66614527E+00   0.44514943E+00
 197.0000   0.95244841E-02  -0.22921657E+03   0.12966405E+01   0.19889887E-03   0.66613923E+00   0.44394397E+00
 198.0000   0.95543296E-02  -0.22791086E+03   0.12784419E+01   0.19854044E-03   0.66613538E+00   0.44481715E+00
 199.0000   0.95900102E-02  -0.22660957E+03   0.12669917E+01   0.19881032E-03   0.66612863E+00   0.44511589E+00
 200.0000   0.96132738E-02  -0.22536853E+03   0.12534881E+01   0.19940188E-03   0.66612311E+00   0.44428507E+00
 201.0000   0.96406756E-02  -0.22410950E+03   0.12411166E+01   0.19943389E-03   0.66611689E+00   0.44436493E+00
 202.0000   0.96639702E-02  -0.22286479E+03   0.12289148E+01   0.19899952E-03   0.66611078E+00   0.44498967E+00
 203.0000   0.96880422E-02  -0.22165637E+03   0.12141548E+01   0.19928176E-03   0.66610597E+00   0.44450720E+00
 204.0000   0.97178136E-02  -0.22043364E+03   0.12029274E+01   0.19959226E-03   0.66609937E+00   0.44427359E+00
 205.0000   0.97568732E-02  -0.21925799E+03   0.11927674E+01   0.20008215E-03   0.66609248E+00   0.44434155E+00
 206.0000   0.97764534E-02  -0.21805724E+03   0.11793995E+01   0.20012982E-03   0.66608709E+00   0.44417299E+00
 207.0000   0.98006059E-02  -0.21688001E+03   0.11681352E+01   0.19978472E-03   0.66608066E+00   0.44448244E+00
 208.0000   0.98265072E-02  -0.21572546E+03   0.11582845E+01   0.20035475E-03   0.66607373E+00   0.44447500E+00
 209.0000   0.98510185E-02  -0.21458814E+03   0.11457954E+01   0.20030905E-03   0.66606819E+00   0.44429521E+00
