 #written on 11Aug2024 at 12:16:29 
 #----------------------------------------------- MONTECARLO ---------------------------------------------------#
 # Temp      Magnetization     Energy_ave          C_M              Sus              U_E              U_M       #
 #--------------------------------------------------------------------------------------------------------------#
   1.0000   0.13555290E-02  -0.12247836E+03   0.99826849E+00   0.10408005E-02   0.66666662E+00   0.33579899E+00
   2.0000   0.19260548E-02  -0.12147037E+03   0.10131175E+01   0.10356456E-02   0.66666649E+00   0.33848391E+00
   3.0000   0.23646402E-02  -0.12045539E+03   0.10250381E+01   0.10315525E-02   0.66666626E+00   0.34032753E+00
   4.0000   0.27375216E-02  -0.11943561E+03   0.10242128E+01   0.10227277E-02   0.66666594E+00   0.34244168E+00
   5.0000   0.30717875E-02  -0.11840886E+03   0.10314178E+01   0.10178510E-02   0.66666550E+00   0.34556122E+00
   6.0000   0.33730401E-02  -0.11737557E+03   0.10335727E+01   0.10119457E-02   0.66666496E+00   0.34743511E+00
   7.0000   0.36567467E-02  -0.11633577E+03   0.10470795E+01   0.10069470E-02   0.66666427E+00   0.35028750E+00
   8.0000   0.39255812E-02  -0.11528795E+03   0.10524789E+01   0.10036794E-02   0.66666346E+00   0.35303048E+00
   9.0000   0.41778069E-02  -0.11423326E+03   0.10539938E+01   0.99803339E-03   0.66666252E+00   0.35610867E+00
  10.0000   0.44194658E-02  -0.11316997E+03   0.10692818E+01   0.99674523E-03   0.66666138E+00   0.35789041E+00
  11.0000   0.46493795E-02  -0.11209875E+03   0.10690980E+01   0.99340706E-03   0.66666015E+00   0.36004313E+00
  12.0000   0.48758563E-02  -0.11101898E+03   0.10842130E+01   0.98959650E-03   0.66665865E+00   0.36306221E+00
  13.0000   0.50906577E-02  -0.10993081E+03   0.10936722E+01   0.98606136E-03   0.66665698E+00   0.36501014E+00
  14.0000   0.52983697E-02  -0.10883158E+03   0.11007792E+01   0.98140140E-03   0.66665514E+00   0.36767885E+00
  15.0000   0.55082185E-02  -0.10772647E+03   0.11120652E+01   0.98101196E-03   0.66665302E+00   0.37015099E+00
  16.0000   0.57115651E-02  -0.10660595E+03   0.11255062E+01   0.97939814E-03   0.66665062E+00   0.37257183E+00
  17.0000   0.59106349E-02  -0.10547433E+03   0.11371158E+01   0.97587804E-03   0.66664797E+00   0.37542908E+00
  18.0000   0.61065525E-02  -0.10433400E+03   0.11470316E+01   0.97564683E-03   0.66664506E+00   0.37775609E+00
  19.0000   0.62950765E-02  -0.10317785E+03   0.11623549E+01   0.97212521E-03   0.66664172E+00   0.38022129E+00
  20.0000   0.64862343E-02  -0.10200884E+03   0.11746368E+01   0.97024111E-03   0.66663809E+00   0.38307567E+00
  21.0000   0.66743038E-02  -0.10082617E+03   0.11909735E+01   0.96969622E-03   0.66663397E+00   0.38564718E+00
  22.0000   0.68577978E-02  -0.99625542E+02   0.12081775E+01   0.96703286E-03   0.66662938E+00   0.38892309E+00
  23.0000   0.70431205E-02  -0.98410115E+02   0.12264475E+01   0.96663982E-03   0.66662427E+00   0.39085922E+00
  24.0000   0.72265394E-02  -0.97173534E+02   0.12470901E+01   0.96657413E-03   0.66661852E+00   0.39381720E+00
  25.0000   0.74126458E-02  -0.95921871E+02   0.12623549E+01   0.96604692E-03   0.66661240E+00   0.39648792E+00
  26.0000   0.75974612E-02  -0.94646208E+02   0.12879199E+01   0.96648734E-03   0.66660516E+00   0.39916599E+00
  27.0000   0.77761849E-02  -0.93346768E+02   0.13110892E+01   0.96570670E-03   0.66659725E+00   0.40236130E+00
  28.0000   0.79651902E-02  -0.92020945E+02   0.13379046E+01   0.96782855E-03   0.66658828E+00   0.40454567E+00
  29.0000   0.81523094E-02  -0.90670971E+02   0.13641278E+01   0.96805349E-03   0.66657837E+00   0.40799936E+00
  30.0000   0.83280721E-02  -0.89292403E+02   0.13949965E+01   0.96925086E-03   0.66656703E+00   0.41013396E+00
  31.0000   0.85137723E-02  -0.87882339E+02   0.14271963E+01   0.96985025E-03   0.66655430E+00   0.41322791E+00
  32.0000   0.86985054E-02  -0.86437640E+02   0.14600095E+01   0.97363161E-03   0.66654006E+00   0.41552475E+00
  33.0000   0.88827962E-02  -0.84961915E+02   0.14951147E+01   0.97660783E-03   0.66652396E+00   0.41800989E+00
  34.0000   0.90706527E-02  -0.83447020E+02   0.15373817E+01   0.98013942E-03   0.66650520E+00   0.42034014E+00
  35.0000   0.92572644E-02  -0.81891604E+02   0.15744097E+01   0.98406401E-03   0.66648474E+00   0.42268276E+00
  36.0000   0.94488053E-02  -0.80294350E+02   0.16220665E+01   0.99023097E-03   0.66646042E+00   0.42473161E+00
  37.0000   0.96389438E-02  -0.78652618E+02   0.16691352E+01   0.99499600E-03   0.66643303E+00   0.42705152E+00
  38.0000   0.98297498E-02  -0.76960756E+02   0.17163413E+01   0.10010414E-02   0.66640202E+00   0.42917708E+00
  39.0000   0.10023934E-01  -0.75218846E+02   0.17698063E+01   0.10061401E-02   0.66636578E+00   0.43148489E+00
  40.0000   0.10210436E-01  -0.73421436E+02   0.18211066E+01   0.10125865E-02   0.66632487E+00   0.43316921E+00
  41.0000   0.10406705E-01  -0.71568890E+02   0.18858633E+01   0.10218837E-02   0.66627536E+00   0.43447158E+00
  42.0000   0.10604317E-01  -0.69650734E+02   0.19425413E+01   0.10305629E-02   0.66622013E+00   0.43625408E+00
  43.0000   0.10792584E-01  -0.67671475E+02   0.20144653E+01   0.10393643E-02   0.66615258E+00   0.43711857E+00
  44.0000   0.10992071E-01  -0.65617846E+02   0.20867575E+01   0.10491450E-02   0.66607370E+00   0.43856822E+00
  45.0000   0.11191009E-01  -0.63491970E+02   0.21661107E+01   0.10592651E-02   0.66597918E+00   0.43958475E+00
  46.0000   0.11386844E-01  -0.61286634E+02   0.22509192E+01   0.10700361E-02   0.66586566E+00   0.44055045E+00
  47.0000   0.11586763E-01  -0.58988649E+02   0.23400470E+01   0.10808696E-02   0.66572856E+00   0.44151672E+00
  48.0000   0.11791399E-01  -0.56589922E+02   0.24481194E+01   0.10933719E-02   0.66555486E+00   0.44236237E+00
  49.0000   0.11990867E-01  -0.54089593E+02   0.25617465E+01   0.11050752E-02   0.66534012E+00   0.44306875E+00
  50.0000   0.12202899E-01  -0.51465296E+02   0.26919497E+01   0.11209940E-02   0.66506434E+00   0.44330233E+00
  51.0000   0.12411037E-01  -0.48701229E+02   0.28411626E+01   0.11343449E-02   0.66470344E+00   0.44407578E+00
  52.0000   0.12622678E-01  -0.45761048E+02   0.30358641E+01   0.11497601E-02   0.66419927E+00   0.44415837E+00
  53.0000   0.12844867E-01  -0.42608758E+02   0.32826930E+01   0.11684330E-02   0.66347621E+00   0.44445786E+00
  54.0000   0.13072261E-01  -0.39117718E+02   0.37422149E+01   0.11885178E-02   0.66220724E+00   0.44413680E+00
  55.0000   0.13318239E-01  -0.35150289E+02   0.40209621E+01   0.12113171E-02   0.66043724E+00   0.44396798E+00
  56.0000   0.13526358E-01  -0.31946638E+02   0.22250238E+01   0.12262391E-02   0.66220624E+00   0.44425840E+00
  57.0000   0.13661788E-01  -0.30366305E+02   0.11426664E+01   0.12284113E-02   0.66406324E+00   0.44427349E+00
  58.0000   0.13767453E-01  -0.29431049E+02   0.78130025E+00   0.12270038E-02   0.66472449E+00   0.44385644E+00
  59.0000   0.13853624E-01  -0.28734946E+02   0.62828848E+00   0.12213596E-02   0.66497868E+00   0.44415311E+00
  60.0000   0.13939127E-01  -0.28156796E+02   0.53739906E+00   0.12157477E-02   0.66511496E+00   0.44416729E+00
  61.0000   0.14016042E-01  -0.27650474E+02   0.47716460E+00   0.12113435E-02   0.66519174E+00   0.44369587E+00
  62.0000   0.14102202E-01  -0.27197999E+02   0.43193076E+00   0.12038802E-02   0.66524207E+00   0.44422392E+00
  63.0000   0.14173369E-01  -0.26784855E+02   0.39563236E+00   0.11970875E-02   0.66527819E+00   0.44399136E+00
  64.0000   0.14252326E-01  -0.26404820E+02   0.36579925E+00   0.11919755E-02   0.66530375E+00   0.44401827E+00
  65.0000   0.14310339E-01  -0.26051894E+02   0.34010835E+00   0.11828327E-02   0.66532431E+00   0.44419162E+00
  66.0000   0.14378908E-01  -0.25722925E+02   0.31823721E+00   0.11757775E-02   0.66533879E+00   0.44403719E+00
  67.0000   0.14447283E-01  -0.25413683E+02   0.29907278E+00   0.11701950E-02   0.66534920E+00   0.44376052E+00
  68.0000   0.14504591E-01  -0.25124080E+02   0.28223279E+00   0.11629919E-02   0.66535655E+00   0.44397541E+00
  69.0000   0.14562192E-01  -0.24849756E+02   0.26693227E+00   0.11544754E-02   0.66536259E+00   0.44389393E+00
  70.0000   0.14626261E-01  -0.24590612E+02   0.25290562E+00   0.11497563E-02   0.66536829E+00   0.44370118E+00
  71.0000   0.14684776E-01  -0.24342981E+02   0.24047456E+00   0.11403204E-02   0.66537075E+00   0.44420093E+00
  72.0000   0.14747936E-01  -0.24108485E+02   0.22902174E+00   0.11342465E-02   0.66537281E+00   0.44394329E+00
  73.0000   0.14797259E-01  -0.23884466E+02   0.21849253E+00   0.11271184E-02   0.66537392E+00   0.44392371E+00
  74.0000   0.14849771E-01  -0.23671669E+02   0.20939829E+00   0.11194847E-02   0.66537065E+00   0.44391175E+00
  75.0000   0.14904301E-01  -0.23465987E+02   0.20015673E+00   0.11131612E-02   0.66537162E+00   0.44375464E+00
  76.0000   0.14958444E-01  -0.23270276E+02   0.19218890E+00   0.11047978E-02   0.66536842E+00   0.44403756E+00
  77.0000   0.15004343E-01  -0.23082318E+02   0.18448000E+00   0.10974496E-02   0.66536658E+00   0.44400198E+00
  78.0000   0.15048672E-01  -0.22901614E+02   0.17717601E+00   0.10922178E-02   0.66536510E+00   0.44357063E+00
  79.0000   0.15107727E-01  -0.22728197E+02   0.17035742E+00   0.10839118E-02   0.66536338E+00   0.44421819E+00
  80.0000   0.15145477E-01  -0.22560467E+02   0.16429471E+00   0.10775875E-02   0.66535858E+00   0.44393592E+00
  81.0000   0.15198165E-01  -0.22398293E+02   0.15857587E+00   0.10727772E-02   0.66535367E+00   0.44343259E+00
  82.0000   0.15244713E-01  -0.22243081E+02   0.15302388E+00   0.10641006E-02   0.66534995E+00   0.44411916E+00
  83.0000   0.15287701E-01  -0.22092807E+02   0.14761344E+00   0.10577816E-02   0.66534760E+00   0.44396544E+00
  84.0000   0.15321341E-01  -0.21947567E+02   0.14304458E+00   0.10490963E-02   0.66534001E+00   0.44434457E+00
  85.0000   0.15371025E-01  -0.21807625E+02   0.13822802E+00   0.10447238E-02   0.66533717E+00   0.44383836E+00
  86.0000   0.15415287E-01  -0.21670979E+02   0.13408817E+00   0.10373382E-02   0.66532979E+00   0.44421171E+00
  87.0000   0.15456275E-01  -0.21539612E+02   0.12968109E+00   0.10312731E-02   0.66532742E+00   0.44389256E+00
  88.0000   0.15496286E-01  -0.21411722E+02   0.12582854E+00   0.10258653E-02   0.66532131E+00   0.44374773E+00
  89.0000   0.15539213E-01  -0.21287456E+02   0.12196645E+00   0.10184208E-02   0.66531718E+00   0.44413954E+00
  90.0000   0.15579490E-01  -0.21167693E+02   0.11838290E+00   0.10125941E-02   0.66531201E+00   0.44409219E+00
  91.0000   0.15619728E-01  -0.21051144E+02   0.11502924E+00   0.10074016E-02   0.66530619E+00   0.44382555E+00
  92.0000   0.15656142E-01  -0.20937782E+02   0.11163257E+00   0.10007203E-02   0.66530250E+00   0.44386833E+00
  93.0000   0.15687661E-01  -0.20827528E+02   0.10859832E+00   0.99397653E-03   0.66529618E+00   0.44412949E+00
  94.0000   0.15721649E-01  -0.20720627E+02   0.10555188E+00   0.98754666E-03   0.66529179E+00   0.44400512E+00
  95.0000   0.15758974E-01  -0.20616076E+02   0.10280047E+00   0.98095855E-03   0.66528503E+00   0.44421906E+00
  96.0000   0.15795516E-01  -0.20514290E+02   0.10009297E+00   0.97527491E-03   0.66527947E+00   0.44410470E+00
  97.0000   0.15828856E-01  -0.20416813E+02   0.97492086E-01   0.97022958E-03   0.66527385E+00   0.44386735E+00
  98.0000   0.15862863E-01  -0.20320050E+02   0.94927194E-01   0.96253887E-03   0.66526926E+00   0.44440983E+00
  99.0000   0.15892427E-01  -0.20225085E+02   0.92603831E-01   0.95835198E-03   0.66526257E+00   0.44402723E+00
 100.0000   0.15928974E-01  -0.20135758E+02   0.90268159E-01   0.95220575E-03   0.66525776E+00   0.44421371E+00
