 #written on 11Aug2024 at 15:55:28 
 #----------------------------------------------- MONTECARLO ---------------------------------------------------#
 # Temp      Magnetization     Energy_ave          C_M              Sus              U_E              U_M       #
 #--------------------------------------------------------------------------------------------------------------#
  21.0000   0.87627043E+00  -0.10534198E+03   0.11139778E+01   0.20203661E-02   0.66664065E+00   0.66663422E+00
  22.0000   0.86967037E+00  -0.10422488E+03   0.11226311E+01   0.21437119E-02   0.66663727E+00   0.66663006E+00
  23.0000   0.86296628E+00  -0.10309601E+03   0.11270264E+01   0.22629434E-02   0.66663370E+00   0.66662563E+00
  24.0000   0.85619722E+00  -0.10196557E+03   0.11401116E+01   0.24071658E-02   0.66662954E+00   0.66662040E+00
  25.0000   0.84919513E+00  -0.10081861E+03   0.11450355E+01   0.25475474E-02   0.66662529E+00   0.66661482E+00
  26.0000   0.84222763E+00  -0.99666506E+02   0.11650825E+01   0.27040127E-02   0.66662007E+00   0.66660850E+00
  27.0000   0.83514229E+00  -0.98505982E+02   0.11712418E+01   0.28474738E-02   0.66661495E+00   0.66660198E+00
  28.0000   0.82790670E+00  -0.97329918E+02   0.11818920E+01   0.29989570E-02   0.66660918E+00   0.66659477E+00
  29.0000   0.82052369E+00  -0.96146224E+02   0.11856342E+01   0.31676444E-02   0.66660328E+00   0.66658660E+00
  30.0000   0.81305545E+00  -0.94950711E+02   0.11979249E+01   0.33464588E-02   0.66659639E+00   0.66657757E+00
  31.0000   0.80549890E+00  -0.93745670E+02   0.12137015E+01   0.35434405E-02   0.66658868E+00   0.66656736E+00
  32.0000   0.79773319E+00  -0.92526876E+02   0.12232877E+01   0.37188356E-02   0.66658069E+00   0.66655698E+00
  33.0000   0.78983192E+00  -0.91293653E+02   0.12409712E+01   0.39266891E-02   0.66657139E+00   0.66654485E+00
  34.0000   0.78177042E+00  -0.90044378E+02   0.12544887E+01   0.41367506E-02   0.66656157E+00   0.66653171E+00
  35.0000   0.77354450E+00  -0.88782439E+02   0.12722427E+01   0.43734397E-02   0.66655049E+00   0.66651668E+00
  36.0000   0.76509953E+00  -0.87503859E+02   0.12892218E+01   0.46383755E-02   0.66653846E+00   0.66649945E+00
  37.0000   0.75652659E+00  -0.86209744E+02   0.12991836E+01   0.48420483E-02   0.66652607E+00   0.66648319E+00
  38.0000   0.74776329E+00  -0.84894714E+02   0.13221886E+01   0.50901234E-02   0.66651103E+00   0.66646391E+00
  39.0000   0.73867811E+00  -0.83564140E+02   0.13440095E+01   0.54170936E-02   0.66649468E+00   0.66643980E+00
  40.0000   0.72940712E+00  -0.82210328E+02   0.13611112E+01   0.56981314E-02   0.66647738E+00   0.66641566E+00
  41.0000   0.71983040E+00  -0.80835036E+02   0.13837952E+01   0.60183117E-02   0.66645755E+00   0.66638771E+00
  42.0000   0.70997134E+00  -0.79437887E+02   0.14111752E+01   0.64067018E-02   0.66643495E+00   0.66635404E+00
  43.0000   0.69981889E+00  -0.78019650E+02   0.14340093E+01   0.68353046E-02   0.66641084E+00   0.66631537E+00
  44.0000   0.68927300E+00  -0.76566463E+02   0.14602488E+01   0.72401881E-02   0.66638347E+00   0.66627423E+00
  45.0000   0.67843894E+00  -0.75088726E+02   0.14904362E+01   0.77403941E-02   0.66635233E+00   0.66622397E+00
  46.0000   0.66717518E+00  -0.73587871E+02   0.15184737E+01   0.81938873E-02   0.66631825E+00   0.66617136E+00
  47.0000   0.65539950E+00  -0.72050947E+02   0.15494422E+01   0.88487310E-02   0.66627955E+00   0.66610064E+00
  48.0000   0.64321346E+00  -0.70481471E+02   0.15885594E+01   0.95416440E-02   0.66623414E+00   0.66601990E+00
  49.0000   0.63048107E+00  -0.68880196E+02   0.16172214E+01   0.10235802E-01   0.66618627E+00   0.66592988E+00
  50.0000   0.61699745E+00  -0.67234376E+02   0.16570767E+01   0.11122325E-01   0.66612882E+00   0.66581429E+00
  51.0000   0.60292120E+00  -0.65549063E+02   0.17055316E+01   0.12139578E-01   0.66606081E+00   0.66567365E+00
  52.0000   0.58800903E+00  -0.63818226E+02   0.17499355E+01   0.13234065E-01   0.66598500E+00   0.66550723E+00
  53.0000   0.57225700E+00  -0.62043615E+02   0.17991734E+01   0.14656483E-01   0.66589658E+00   0.66528657E+00
  54.0000   0.55539188E+00  -0.60219059E+02   0.18462454E+01   0.16262457E-01   0.66579601E+00   0.66501262E+00
  55.0000   0.53745379E+00  -0.58337423E+02   0.18980089E+01   0.18179915E-01   0.66567758E+00   0.66465932E+00
  56.0000   0.51815537E+00  -0.56402479E+02   0.19649890E+01   0.20655708E-01   0.66553115E+00   0.66417419E+00
  57.0000   0.49708529E+00  -0.54405450E+02   0.20422641E+01   0.24072308E-01   0.66535325E+00   0.66346554E+00
  58.0000   0.47389939E+00  -0.52327488E+02   0.21134207E+01   0.28153585E-01   0.66514570E+00   0.66249739E+00
  59.0000   0.44815924E+00  -0.50172277E+02   0.21924019E+01   0.34123827E-01   0.66489203E+00   0.66096584E+00
  60.0000   0.41901941E+00  -0.47932109E+02   0.22876341E+01   0.42675157E-01   0.66456928E+00   0.65847900E+00
  61.0000   0.38566642E+00  -0.45604571E+02   0.23884279E+01   0.55874632E-01   0.66416755E+00   0.65409085E+00
  62.0000   0.34618425E+00  -0.43176487E+02   0.24645447E+01   0.77482444E-01   0.66369649E+00   0.64562137E+00
  63.0000   0.29923383E+00  -0.40693177E+02   0.24771299E+01   0.11022306E+00   0.66318932E+00   0.62837286E+00
  64.0000   0.24738858E+00  -0.38290467E+02   0.22725572E+01   0.13730524E+00   0.66292891E+00   0.59817232E+00
  65.0000   0.19982160E+00  -0.36209916E+02   0.18739639E+01   0.13578453E+00   0.66309701E+00   0.56025402E+00
  66.0000   0.16334251E+00  -0.34531000E+02   0.15156070E+01   0.11628343E+00   0.66339227E+00   0.52476068E+00
  67.0000   0.13730869E+00  -0.33152492E+02   0.12576034E+01   0.92682814E-01   0.66363257E+00   0.49893896E+00
  68.0000   0.11889278E+00  -0.31989085E+02   0.10817314E+01   0.73119563E-01   0.66378389E+00   0.48360992E+00
  69.0000   0.10556381E+00  -0.30975675E+02   0.95924831E+00   0.59448311E-01   0.66386236E+00   0.47253812E+00
  70.0000   0.95660966E-01  -0.30065536E+02   0.86920990E+00   0.49250468E-01   0.66389264E+00   0.46538116E+00
  71.0000   0.87695897E-01  -0.29234389E+02   0.79740550E+00   0.41531185E-01   0.66389844E+00   0.46000206E+00
  72.0000   0.81289463E-01  -0.28470319E+02   0.73851765E+00   0.35625613E-01   0.66388860E+00   0.45731642E+00
  73.0000   0.76154629E-01  -0.27756600E+02   0.68856892E+00   0.31012257E-01   0.66386632E+00   0.45499921E+00
  74.0000   0.71854891E-01  -0.27088587E+02   0.64564141E+00   0.27446534E-01   0.66383425E+00   0.45289982E+00
  75.0000   0.68172084E-01  -0.26464829E+02   0.60717764E+00   0.24500322E-01   0.66380061E+00   0.45153503E+00
  76.0000   0.65056663E-01  -0.25875612E+02   0.57451930E+00   0.22030785E-01   0.66375399E+00   0.45122133E+00
  77.0000   0.62287196E-01  -0.25314739E+02   0.54325139E+00   0.19978995E-01   0.66371344E+00   0.45039388E+00
  78.0000   0.59851207E-01  -0.24785761E+02   0.51628465E+00   0.18275135E-01   0.66366338E+00   0.44933688E+00
  79.0000   0.57739379E-01  -0.24281561E+02   0.49178684E+00   0.16802816E-01   0.66360931E+00   0.44875633E+00
  80.0000   0.55782206E-01  -0.23802728E+02   0.46879445E+00   0.15512658E-01   0.66355600E+00   0.44858068E+00
  81.0000   0.54149409E-01  -0.23344637E+02   0.44755392E+00   0.14450563E-01   0.66350258E+00   0.44825420E+00
  82.0000   0.52529570E-01  -0.22903597E+02   0.42812084E+00   0.13453717E-01   0.66344416E+00   0.44777266E+00
  83.0000   0.51077711E-01  -0.22488039E+02   0.41086564E+00   0.12602797E-01   0.66338100E+00   0.44687673E+00
  84.0000   0.49814513E-01  -0.22084358E+02   0.39484728E+00   0.11855444E-01   0.66331262E+00   0.44658715E+00
  85.0000   0.48634162E-01  -0.21700431E+02   0.37817184E+00   0.11164734E-01   0.66326100E+00   0.44650362E+00
  86.0000   0.47486938E-01  -0.21328024E+02   0.36413275E+00   0.10503564E-01   0.66319181E+00   0.44711768E+00
  87.0000   0.46481803E-01  -0.20970192E+02   0.34925794E+00   0.99916825E-02   0.66313884E+00   0.44584274E+00
  88.0000   0.45608986E-01  -0.20626531E+02   0.33790889E+00   0.94969331E-02   0.66305773E+00   0.44614372E+00
  89.0000   0.44713439E-01  -0.20293388E+02   0.32611882E+00   0.90339436E-02   0.66298592E+00   0.44559090E+00
  90.0000   0.43884250E-01  -0.19973231E+02   0.31531498E+00   0.85868114E-02   0.66291067E+00   0.44642205E+00
  91.0000   0.43149283E-01  -0.19665686E+02   0.30436612E+00   0.82183714E-02   0.66284231E+00   0.44638427E+00
  92.0000   0.42419167E-01  -0.19364381E+02   0.29325442E+00   0.78682283E-02   0.66278381E+00   0.44573735E+00
  93.0000   0.41768311E-01  -0.19076726E+02   0.28455880E+00   0.75455464E-02   0.66269990E+00   0.44603451E+00
  94.0000   0.41120309E-01  -0.18797227E+02   0.27501336E+00   0.72435212E-02   0.66263325E+00   0.44572405E+00
  95.0000   0.40510898E-01  -0.18524154E+02   0.26678034E+00   0.69439714E-02   0.66255077E+00   0.44603800E+00
  96.0000   0.39997782E-01  -0.18264083E+02   0.25866918E+00   0.67013561E-02   0.66247603E+00   0.44606561E+00
  97.0000   0.39422554E-01  -0.18007910E+02   0.25105593E+00   0.64339422E-02   0.66239526E+00   0.44600646E+00
  98.0000   0.38964532E-01  -0.17761199E+02   0.24350050E+00   0.62282867E-02   0.66231974E+00   0.44571865E+00
  99.0000   0.38433550E-01  -0.17520278E+02   0.23642198E+00   0.60093786E-02   0.66224068E+00   0.44513894E+00
 100.0000   0.38024650E-01  -0.17288581E+02   0.23000834E+00   0.58089198E-02   0.66215753E+00   0.44572900E+00
