 #written on 15Nov2024 at 14:12:22 
 #----------------------------------------------- MONTECARLO ---------------------------------------------------#
 # Temp      Magnetization     Energy_ave          C_M              Sus              U_E              U_M       #
 #--------------------------------------------------------------------------------------------------------------#
 200.0000   0.80995382E-02  -0.39619232E+03   0.15820550E+01   0.14149587E-03   0.66644475E+00   0.44397278E+00
 201.0000   0.81247926E-02  -0.39461177E+03   0.15904307E+01   0.14187158E-03   0.66643952E+00   0.44388189E+00
 202.0000   0.81493141E-02  -0.39301009E+03   0.15987900E+01   0.14205412E-03   0.66643418E+00   0.44391941E+00
 203.0000   0.81789863E-02  -0.39140349E+03   0.16110116E+01   0.14228345E-03   0.66642814E+00   0.44361122E+00
 204.0000   0.82055566E-02  -0.38977752E+03   0.16170560E+01   0.14250241E-03   0.66642287E+00   0.44371846E+00
 205.0000   0.82294651E-02  -0.38815371E+03   0.16312052E+01   0.14281633E-03   0.66641622E+00   0.44366333E+00
 206.0000   0.82605376E-02  -0.38651637E+03   0.16376123E+01   0.14294080E-03   0.66641062E+00   0.44384722E+00
 207.0000   0.82842499E-02  -0.38489014E+03   0.16440548E+01   0.14320568E-03   0.66640492E+00   0.44360038E+00
 208.0000   0.83114815E-02  -0.38322991E+03   0.16548066E+01   0.14320250E-03   0.66639836E+00   0.44401319E+00
 209.0000   0.83380779E-02  -0.38157174E+03   0.16682655E+01   0.14370627E-03   0.66639118E+00   0.44388196E+00
 210.0000   0.83609773E-02  -0.37990055E+03   0.16765478E+01   0.14376217E-03   0.66638469E+00   0.44410933E+00
 211.0000   0.83887139E-02  -0.37822603E+03   0.16825336E+01   0.14414092E-03   0.66637845E+00   0.44345798E+00
 212.0000   0.84117805E-02  -0.37654428E+03   0.16892454E+01   0.14411931E-03   0.66637195E+00   0.44391787E+00
 213.0000   0.84467786E-02  -0.37485587E+03   0.16959938E+01   0.14442017E-03   0.66636527E+00   0.44421084E+00
 214.0000   0.84717222E-02  -0.37314887E+03   0.17020258E+01   0.14459026E-03   0.66635855E+00   0.44415662E+00
 215.0000   0.84976830E-02  -0.37144194E+03   0.17059073E+01   0.14495460E-03   0.66635208E+00   0.44389398E+00
 216.0000   0.85247993E-02  -0.36973481E+03   0.17112866E+01   0.14525441E-03   0.66634519E+00   0.44373147E+00
 217.0000   0.85502601E-02  -0.36801245E+03   0.17160470E+01   0.14527791E-03   0.66633827E+00   0.44429751E+00
 218.0000   0.85781556E-02  -0.36630145E+03   0.17183377E+01   0.14563290E-03   0.66633166E+00   0.44428743E+00
 219.0000   0.86071723E-02  -0.36457974E+03   0.17210049E+01   0.14577957E-03   0.66632485E+00   0.44451504E+00
 220.0000   0.86309891E-02  -0.36287148E+03   0.17229069E+01   0.14580341E-03   0.66631807E+00   0.44463734E+00
 221.0000   0.86564365E-02  -0.36113507E+03   0.17244401E+01   0.14643718E-03   0.66631118E+00   0.44399067E+00
 222.0000   0.86868593E-02  -0.35942170E+03   0.17217623E+01   0.14663796E-03   0.66630510E+00   0.44400670E+00
 223.0000   0.87073205E-02  -0.35769437E+03   0.17236115E+01   0.14682791E-03   0.66629789E+00   0.44391471E+00
 224.0000   0.87338000E-02  -0.35596543E+03   0.17160327E+01   0.14697570E-03   0.66629258E+00   0.44386657E+00
 225.0000   0.87606189E-02  -0.35423826E+03   0.17177532E+01   0.14720703E-03   0.66628516E+00   0.44412651E+00
 226.0000   0.87846745E-02  -0.35254161E+03   0.17142921E+01   0.14738739E-03   0.66627883E+00   0.44388838E+00
 227.0000   0.88129387E-02  -0.35082861E+03   0.17114354E+01   0.14747144E-03   0.66627221E+00   0.44436772E+00
 228.0000   0.88433566E-02  -0.34911868E+03   0.17088190E+01   0.14796161E-03   0.66626543E+00   0.44410038E+00
 229.0000   0.88646146E-02  -0.34742638E+03   0.17013168E+01   0.14813136E-03   0.66625973E+00   0.44371852E+00
 230.0000   0.88935815E-02  -0.34570787E+03   0.16957691E+01   0.14846954E-03   0.66625341E+00   0.44387992E+00
 231.0000   0.89178122E-02  -0.34401529E+03   0.16862541E+01   0.14847543E-03   0.66624808E+00   0.44399341E+00
 232.0000   0.89453594E-02  -0.34233530E+03   0.16803099E+01   0.14865239E-03   0.66624177E+00   0.44458620E+00
 233.0000   0.89712983E-02  -0.34065855E+03   0.16754981E+01   0.14895148E-03   0.66623512E+00   0.44432107E+00
 234.0000   0.89917611E-02  -0.33897708E+03   0.16639463E+01   0.14903943E-03   0.66623010E+00   0.44433301E+00
 235.0000   0.90200545E-02  -0.33732572E+03   0.16571633E+01   0.14912944E-03   0.66622386E+00   0.44460315E+00
 236.0000   0.90465669E-02  -0.33568617E+03   0.16453854E+01   0.14943804E-03   0.66621892E+00   0.44433590E+00
 237.0000   0.90694258E-02  -0.33404179E+03   0.16365214E+01   0.14942345E-03   0.66621307E+00   0.44466645E+00
 238.0000   0.90982218E-02  -0.33241871E+03   0.16281522E+01   0.14992870E-03   0.66620712E+00   0.44436535E+00
 239.0000   0.91208421E-02  -0.33078274E+03   0.16143243E+01   0.15018763E-03   0.66620264E+00   0.44425331E+00
 240.0000   0.91456801E-02  -0.32917851E+03   0.16064195E+01   0.15034471E-03   0.66619650E+00   0.44405323E+00
 241.0000   0.91704031E-02  -0.32757579E+03   0.15915792E+01   0.15059767E-03   0.66619232E+00   0.44400674E+00
 242.0000   0.91986714E-02  -0.32599435E+03   0.15818848E+01   0.15070799E-03   0.66618667E+00   0.44452266E+00
 243.0000   0.92224797E-02  -0.32441668E+03   0.15687324E+01   0.15096330E-03   0.66618201E+00   0.44413552E+00
 244.0000   0.92402040E-02  -0.32285580E+03   0.15575142E+01   0.15090347E-03   0.66617681E+00   0.44414090E+00
 245.0000   0.92681980E-02  -0.32129739E+03   0.15473625E+01   0.15115207E-03   0.66617123E+00   0.44446571E+00
 246.0000   0.92926620E-02  -0.31975702E+03   0.15316467E+01   0.15130662E-03   0.66616750E+00   0.44442153E+00
 247.0000   0.93149163E-02  -0.31822579E+03   0.15213398E+01   0.15141191E-03   0.66616198E+00   0.44459016E+00
 248.0000   0.93376765E-02  -0.31672977E+03   0.15099280E+01   0.15150662E-03   0.66615692E+00   0.44430138E+00
 249.0000   0.93625160E-02  -0.31521854E+03   0.14956587E+01   0.15173705E-03   0.66615275E+00   0.44440651E+00
 250.0000   0.93885157E-02  -0.31372443E+03   0.14834840E+01   0.15202683E-03   0.66614793E+00   0.44427840E+00
 251.0000   0.94083363E-02  -0.31224755E+03   0.14754496E+01   0.15201166E-03   0.66614165E+00   0.44450107E+00
 252.0000   0.94338759E-02  -0.31079024E+03   0.14618756E+01   0.15240668E-03   0.66613740E+00   0.44403306E+00
 253.0000   0.94542280E-02  -0.30933232E+03   0.14504228E+01   0.15237526E-03   0.66613238E+00   0.44448024E+00
 254.0000   0.94803267E-02  -0.30789443E+03   0.14366422E+01   0.15260945E-03   0.66612828E+00   0.44443575E+00
 255.0000   0.95003826E-02  -0.30644999E+03   0.14246667E+01   0.15268197E-03   0.66612347E+00   0.44423160E+00
 256.0000   0.95231407E-02  -0.30504193E+03   0.14114418E+01   0.15272693E-03   0.66611926E+00   0.44423984E+00
 257.0000   0.95484448E-02  -0.30364508E+03   0.14006339E+01   0.15293721E-03   0.66611414E+00   0.44421577E+00
 258.0000   0.95679145E-02  -0.30225221E+03   0.13886234E+01   0.15306281E-03   0.66610954E+00   0.44421498E+00
 259.0000   0.95897203E-02  -0.30085708E+03   0.13755982E+01   0.15319973E-03   0.66610531E+00   0.44417867E+00
 260.0000   0.96163139E-02  -0.29948271E+03   0.13639768E+01   0.15366794E-03   0.66610055E+00   0.44383579E+00
 261.0000   0.96356171E-02  -0.29812614E+03   0.13533825E+01   0.15318315E-03   0.66609548E+00   0.44464448E+00
 262.0000   0.96623496E-02  -0.29679283E+03   0.13379773E+01   0.15343914E-03   0.66609251E+00   0.44462462E+00
 263.0000   0.96808232E-02  -0.29545892E+03   0.13281554E+01   0.15346283E-03   0.66608718E+00   0.44473373E+00
 264.0000   0.97025375E-02  -0.29413361E+03   0.13202837E+01   0.15381446E-03   0.66608101E+00   0.44427929E+00
 265.0000   0.97266280E-02  -0.29281493E+03   0.13048260E+01   0.15389211E-03   0.66607816E+00   0.44443783E+00
 266.0000   0.97414931E-02  -0.29152549E+03   0.12940997E+01   0.15378397E-03   0.66607341E+00   0.44446927E+00
 267.0000   0.97674378E-02  -0.29022320E+03   0.12837582E+01   0.15402486E-03   0.66606835E+00   0.44447647E+00
 268.0000   0.97879468E-02  -0.28895172E+03   0.12743022E+01   0.15417969E-03   0.66606306E+00   0.44399511E+00
 269.0000   0.98105020E-02  -0.28767273E+03   0.12624822E+01   0.15426019E-03   0.66605882E+00   0.44424529E+00
 270.0000   0.98305401E-02  -0.28643202E+03   0.12527614E+01   0.15421196E-03   0.66605372E+00   0.44448220E+00
 271.0000   0.98497295E-02  -0.28517446E+03   0.12426832E+01   0.15433383E-03   0.66604870E+00   0.44437256E+00
 272.0000   0.98752759E-02  -0.28393685E+03   0.12304411E+01   0.15480029E-03   0.66604489E+00   0.44402736E+00
 273.0000   0.98969957E-02  -0.28271109E+03   0.12207567E+01   0.15469290E-03   0.66603985E+00   0.44419197E+00
 274.0000   0.99124429E-02  -0.28149837E+03   0.12121176E+01   0.15455086E-03   0.66603435E+00   0.44426330E+00
 275.0000   0.99340498E-02  -0.28028500E+03   0.12005229E+01   0.15473052E-03   0.66603031E+00   0.44421995E+00
 276.0000   0.99566794E-02  -0.27909879E+03   0.11898278E+01   0.15477250E-03   0.66602597E+00   0.44466138E+00
 277.0000   0.99777047E-02  -0.27791020E+03   0.11816335E+01   0.15504199E-03   0.66602029E+00   0.44419934E+00
 278.0000   0.99961929E-02  -0.27672820E+03   0.11751942E+01   0.15481868E-03   0.66601362E+00   0.44469269E+00
 279.0000   0.10015054E-01  -0.27557094E+03   0.11627717E+01   0.15492975E-03   0.66601038E+00   0.44437870E+00
 280.0000   0.10033076E-01  -0.27439486E+03   0.11527576E+01   0.15521808E-03   0.66600573E+00   0.44397031E+00
 281.0000   0.10053815E-01  -0.27325675E+03   0.11461990E+01   0.15529120E-03   0.66599927E+00   0.44392249E+00
 282.0000   0.10074136E-01  -0.27210600E+03   0.11361341E+01   0.15501396E-03   0.66599479E+00   0.44448047E+00
 283.0000   0.10097086E-01  -0.27098645E+03   0.11280790E+01   0.15524457E-03   0.66598928E+00   0.44431468E+00
 284.0000   0.10112955E-01  -0.26986539E+03   0.11195812E+01   0.15537599E-03   0.66598395E+00   0.44425635E+00
 285.0000   0.10134950E-01  -0.26874501E+03   0.11094052E+01   0.15529236E-03   0.66597970E+00   0.44438986E+00
 286.0000   0.10152117E-01  -0.26763742E+03   0.10994951E+01   0.15539208E-03   0.66597537E+00   0.44439573E+00
 287.0000   0.10176172E-01  -0.26654463E+03   0.10922056E+01   0.15524724E-03   0.66596945E+00   0.44494780E+00
 288.0000   0.10197515E-01  -0.26545425E+03   0.10822167E+01   0.15562300E-03   0.66596528E+00   0.44444473E+00
 289.0000   0.10212355E-01  -0.26437932E+03   0.10734655E+01   0.15560458E-03   0.66596043E+00   0.44439965E+00
 290.0000   0.10230993E-01  -0.26331102E+03   0.10654555E+01   0.15570945E-03   0.66595508E+00   0.44423228E+00
 291.0000   0.10251342E-01  -0.26225443E+03   0.10580809E+01   0.15573891E-03   0.66594941E+00   0.44422150E+00
 292.0000   0.10264714E-01  -0.26120399E+03   0.10509202E+01   0.15577186E-03   0.66594358E+00   0.44384324E+00
 293.0000   0.10284572E-01  -0.26015633E+03   0.10412785E+01   0.15559478E-03   0.66593948E+00   0.44461835E+00
 294.0000   0.10302605E-01  -0.25911822E+03   0.10339638E+01   0.15588842E-03   0.66593378E+00   0.44398651E+00
 295.0000   0.10323291E-01  -0.25809272E+03   0.10250107E+01   0.15566796E-03   0.66592940E+00   0.44460973E+00
 296.0000   0.10339626E-01  -0.25707600E+03   0.10173849E+01   0.15562644E-03   0.66592403E+00   0.44428701E+00
 297.0000   0.10359582E-01  -0.25605707E+03   0.10072419E+01   0.15577329E-03   0.66592059E+00   0.44455449E+00
 298.0000   0.10380077E-01  -0.25504459E+03   0.99995574E+00   0.15557532E-03   0.66591507E+00   0.44471658E+00
 299.0000   0.10401578E-01  -0.25405632E+03   0.99397267E+00   0.15603142E-03   0.66590865E+00   0.44441112E+00
