 #written on 31Jul2024 at 13:40:06 
 #----------------------------------------------- MONTECARLO ---------------------------------------------------#
 # Temp      Magnetization     Energy_ave          C_M              Sus              U_E              U_M       #
 #--------------------------------------------------------------------------------------------------------------#
 386.0000   0.10651717E-01  -0.43516985E+03   0.19426893E+01   0.10523786E-03   0.66565064E+00   0.44237939E+00
 387.0000   0.10668342E-01  -0.43322692E+03   0.19575520E+01   0.10547524E-03   0.66562823E+00   0.44250649E+00
 388.0000   0.10692437E-01  -0.43126760E+03   0.19607564E+01   0.10564742E-03   0.66561179E+00   0.44281925E+00
 389.0000   0.10708783E-01  -0.42931904E+03   0.19772415E+01   0.10553953E-03   0.66558762E+00   0.44260267E+00
 390.0000   0.10727542E-01  -0.42735050E+03   0.19811993E+01   0.10569713E-03   0.66556987E+00   0.44282627E+00
 391.0000   0.10745417E-01  -0.42533901E+03   0.19948382E+01   0.10572860E-03   0.66554621E+00   0.44290102E+00
 392.0000   0.10768870E-01  -0.42334565E+03   0.19984133E+01   0.10609577E-03   0.66552797E+00   0.44204413E+00
 393.0000   0.10789104E-01  -0.42133484E+03   0.20138162E+01   0.10617065E-03   0.66550239E+00   0.44234899E+00
 394.0000   0.10806966E-01  -0.41933945E+03   0.20186090E+01   0.10619087E-03   0.66548254E+00   0.44247888E+00
 395.0000   0.10822871E-01  -0.41729295E+03   0.20317137E+01   0.10626549E-03   0.66545692E+00   0.44248826E+00
 396.0000   0.10847138E-01  -0.41528393E+03   0.20409091E+01   0.10642700E-03   0.66543364E+00   0.44256350E+00
 397.0000   0.10864218E-01  -0.41320927E+03   0.20529238E+01   0.10647957E-03   0.66540753E+00   0.44260098E+00
 398.0000   0.10887466E-01  -0.41115045E+03   0.20656962E+01   0.10645464E-03   0.66538077E+00   0.44292208E+00
 399.0000   0.10911153E-01  -0.40908629E+03   0.20800113E+01   0.10687415E-03   0.66535230E+00   0.44236398E+00
 400.0000   0.10925515E-01  -0.40702328E+03   0.20858754E+01   0.10681009E-03   0.66532830E+00   0.44289243E+00
 401.0000   0.10945001E-01  -0.40490031E+03   0.21035246E+01   0.10701069E-03   0.66529615E+00   0.44294595E+00
 402.0000   0.10961401E-01  -0.40279420E+03   0.21083607E+01   0.10683951E-03   0.66527172E+00   0.44314889E+00
 403.0000   0.10990389E-01  -0.40064211E+03   0.21199971E+01   0.10714289E-03   0.66524211E+00   0.44325141E+00
 404.0000   0.11001742E-01  -0.39856312E+03   0.21311994E+01   0.10723918E-03   0.66521227E+00   0.44288664E+00
 405.0000   0.11020390E-01  -0.39644466E+03   0.21473681E+01   0.10722899E-03   0.66517837E+00   0.44314210E+00
 406.0000   0.11039388E-01  -0.39425482E+03   0.21581264E+01   0.10751034E-03   0.66514690E+00   0.44248530E+00
 407.0000   0.11062111E-01  -0.39214476E+03   0.21682887E+01   0.10753920E-03   0.66511587E+00   0.44301966E+00
 408.0000   0.11089875E-01  -0.38992982E+03   0.21792166E+01   0.10772073E-03   0.66508252E+00   0.44335865E+00
 409.0000   0.11106202E-01  -0.38775812E+03   0.21978417E+01   0.10801054E-03   0.66504315E+00   0.44278292E+00
 410.0000   0.11126246E-01  -0.38555742E+03   0.22093095E+01   0.10782152E-03   0.66500820E+00   0.44348925E+00
 411.0000   0.11137814E-01  -0.38330765E+03   0.22242789E+01   0.10788840E-03   0.66496897E+00   0.44333909E+00
 412.0000   0.11165100E-01  -0.38106226E+03   0.22402352E+01   0.10830762E-03   0.66492856E+00   0.44322923E+00
 413.0000   0.11191007E-01  -0.37885579E+03   0.22472167E+01   0.10836280E-03   0.66489434E+00   0.44347263E+00
 414.0000   0.11202919E-01  -0.37660265E+03   0.22579163E+01   0.10831706E-03   0.66485583E+00   0.44340147E+00
 415.0000   0.11234867E-01  -0.37434243E+03   0.22701847E+01   0.10869681E-03   0.66481495E+00   0.44351705E+00
 416.0000   0.11245805E-01  -0.37206388E+03   0.22891952E+01   0.10855391E-03   0.66476766E+00   0.44345164E+00
 417.0000   0.11260821E-01  -0.36971480E+03   0.23042561E+01   0.10847947E-03   0.66472169E+00   0.44386651E+00
 418.0000   0.11284824E-01  -0.36743660E+03   0.23156327E+01   0.10883773E-03   0.66467857E+00   0.44358933E+00
 419.0000   0.11303453E-01  -0.36507191E+03   0.23281683E+01   0.10879362E-03   0.66463206E+00   0.44399430E+00
 420.0000   0.11320234E-01  -0.36278530E+03   0.23382523E+01   0.10905546E-03   0.66458761E+00   0.44335839E+00
 421.0000   0.11344613E-01  -0.36043339E+03   0.23523186E+01   0.10921809E-03   0.66453804E+00   0.44342815E+00
 422.0000   0.11367724E-01  -0.35803381E+03   0.23723191E+01   0.10937895E-03   0.66448074E+00   0.44357352E+00
 423.0000   0.11386539E-01  -0.35566324E+03   0.23835086E+01   0.10932473E-03   0.66443074E+00   0.44410950E+00
 424.0000   0.11408023E-01  -0.35327808E+03   0.24012927E+01   0.10970106E-03   0.66437229E+00   0.44373418E+00
 425.0000   0.11431833E-01  -0.35088851E+03   0.24041228E+01   0.10965518E-03   0.66432768E+00   0.44408545E+00
 426.0000   0.11446685E-01  -0.34842399E+03   0.24221935E+01   0.10977787E-03   0.66426502E+00   0.44372537E+00
 427.0000   0.11469812E-01  -0.34602217E+03   0.24331900E+01   0.10988832E-03   0.66420863E+00   0.44394277E+00
 428.0000   0.11497897E-01  -0.34360534E+03   0.24513917E+01   0.11029443E-03   0.66414361E+00   0.44385569E+00
 429.0000   0.11514331E-01  -0.34115131E+03   0.24536094E+01   0.11011774E-03   0.66409293E+00   0.44436918E+00
 430.0000   0.11537637E-01  -0.33870730E+03   0.24593320E+01   0.11023654E-03   0.66403674E+00   0.44425448E+00
 431.0000   0.11560881E-01  -0.33626134E+03   0.24668293E+01   0.11061346E-03   0.66397716E+00   0.44398640E+00
 432.0000   0.11574621E-01  -0.33375204E+03   0.24636757E+01   0.11056083E-03   0.66392726E+00   0.44418288E+00
 433.0000   0.11595746E-01  -0.33127056E+03   0.24670935E+01   0.11077450E-03   0.66386830E+00   0.44401921E+00
 434.0000   0.11615150E-01  -0.32882405E+03   0.24516445E+01   0.11084233E-03   0.66383022E+00   0.44429368E+00
 435.0000   0.11637299E-01  -0.32642398E+03   0.24480625E+01   0.11097095E-03   0.66377836E+00   0.44410744E+00
 436.0000   0.11654439E-01  -0.32397071E+03   0.24343722E+01   0.11129850E-03   0.66373579E+00   0.44355965E+00
 437.0000   0.11671848E-01  -0.32149573E+03   0.24181575E+01   0.11134467E-03   0.66369514E+00   0.44380389E+00
 438.0000   0.11696672E-01  -0.31908607E+03   0.23996076E+01   0.11133319E-03   0.66365754E+00   0.44434568E+00
 439.0000   0.11720194E-01  -0.31672294E+03   0.23698183E+01   0.11158347E-03   0.66363446E+00   0.44427035E+00
 440.0000   0.11737006E-01  -0.31435398E+03   0.23377333E+01   0.11155416E-03   0.66361391E+00   0.44453345E+00
 441.0000   0.11756105E-01  -0.31206833E+03   0.22996876E+01   0.11162722E-03   0.66360375E+00   0.44437079E+00
 442.0000   0.11774280E-01  -0.30978050E+03   0.22648682E+01   0.11195489E-03   0.66358991E+00   0.44398287E+00
 443.0000   0.11798430E-01  -0.30755800E+03   0.22122170E+01   0.11193710E-03   0.66360145E+00   0.44409008E+00
 444.0000   0.11812794E-01  -0.30528237E+03   0.21687122E+01   0.11214274E-03   0.66360030E+00   0.44393722E+00
 445.0000   0.11832474E-01  -0.30318077E+03   0.21179300E+01   0.11215399E-03   0.66361560E+00   0.44412379E+00
 446.0000   0.11847979E-01  -0.30104969E+03   0.20619791E+01   0.11221329E-03   0.66363886E+00   0.44397765E+00
 447.0000   0.11869277E-01  -0.29907642E+03   0.20094174E+01   0.11255572E-03   0.66366170E+00   0.44392477E+00
 448.0000   0.11889822E-01  -0.29709576E+03   0.19545827E+01   0.11222693E-03   0.66368955E+00   0.44461565E+00
 449.0000   0.11899253E-01  -0.29513557E+03   0.19002787E+01   0.11247559E-03   0.66371957E+00   0.44421503E+00
 450.0000   0.11922402E-01  -0.29328128E+03   0.18468330E+01   0.11255724E-03   0.66375262E+00   0.44420863E+00
 451.0000   0.11939286E-01  -0.29144281E+03   0.17934341E+01   0.11273356E-03   0.66378767E+00   0.44406684E+00
 452.0000   0.11952340E-01  -0.28968524E+03   0.17374213E+01   0.11267010E-03   0.66383004E+00   0.44421357E+00
 453.0000   0.11977157E-01  -0.28798850E+03   0.16897356E+01   0.11290991E-03   0.66386353E+00   0.44443937E+00
 454.0000   0.11990790E-01  -0.28631512E+03   0.16366802E+01   0.11276880E-03   0.66390687E+00   0.44444782E+00
 455.0000   0.12011581E-01  -0.28474201E+03   0.15912434E+01   0.11303674E-03   0.66394186E+00   0.44424807E+00
 456.0000   0.12020843E-01  -0.28315490E+03   0.15506615E+01   0.11306729E-03   0.66396950E+00   0.44389683E+00
 457.0000   0.12034807E-01  -0.28161746E+03   0.15048170E+01   0.11294598E-03   0.66400979E+00   0.44400919E+00
 458.0000   0.12051918E-01  -0.28010174E+03   0.14657204E+01   0.11303278E-03   0.66403964E+00   0.44409239E+00
 459.0000   0.12061615E-01  -0.27869278E+03   0.14266191E+01   0.11305918E-03   0.66407312E+00   0.44386816E+00
 460.0000   0.12076861E-01  -0.27729410E+03   0.13885268E+01   0.11317406E-03   0.66410649E+00   0.44407107E+00
 461.0000   0.12097865E-01  -0.27589927E+03   0.13588206E+01   0.11303850E-03   0.66412464E+00   0.44459553E+00
 462.0000   0.12113206E-01  -0.27455310E+03   0.13205539E+01   0.11313928E-03   0.66416189E+00   0.44444043E+00
 463.0000   0.12124099E-01  -0.27324053E+03   0.12928026E+01   0.11311816E-03   0.66418069E+00   0.44442492E+00
 464.0000   0.12135846E-01  -0.27200385E+03   0.12629729E+01   0.11298302E-03   0.66420607E+00   0.44472568E+00
 465.0000   0.12156497E-01  -0.27072288E+03   0.12367242E+01   0.11319029E-03   0.66422418E+00   0.44467333E+00
