 #written on 31Jul2024 at 13:30:43 
 #----------------------------------------------- MONTECARLO ---------------------------------------------------#
 # Temp      Magnetization     Energy_ave          C_M              Sus              U_E              U_M       #
 #--------------------------------------------------------------------------------------------------------------#
 271.0000   0.10971694E-01  -0.32801875E+03   0.18008926E+01   0.15904720E-03   0.66584908E+00   0.44274326E+00
 271.9873   0.11000173E-01  -0.32625845E+03   0.18058928E+01   0.15902639E-03   0.66583191E+00   0.44339646E+00
 272.9747   0.11024794E-01  -0.32445861E+03   0.18190842E+01   0.15904646E-03   0.66581041E+00   0.44333507E+00
 273.9620   0.11056739E-01  -0.32265214E+03   0.18332424E+01   0.15922646E-03   0.66578770E+00   0.44372036E+00
 274.9494   0.11082534E-01  -0.32084766E+03   0.18362425E+01   0.15977805E-03   0.66576988E+00   0.44301861E+00
 275.9367   0.11113061E-01  -0.31902189E+03   0.18464937E+01   0.15985514E-03   0.66574810E+00   0.44348391E+00
 276.9241   0.11142508E-01  -0.31719370E+03   0.18587891E+01   0.16011528E-03   0.66572460E+00   0.44372448E+00
 277.9114   0.11166977E-01  -0.31537465E+03   0.18702276E+01   0.16042070E-03   0.66570100E+00   0.44330938E+00
 278.8987   0.11193145E-01  -0.31350600E+03   0.18761189E+01   0.16038294E-03   0.66567945E+00   0.44382969E+00
 279.8861   0.11223545E-01  -0.31163299E+03   0.18923105E+01   0.16083776E-03   0.66565174E+00   0.44331385E+00
 280.8734   0.11247057E-01  -0.30976726E+03   0.19017980E+01   0.16110590E-03   0.66562727E+00   0.44303769E+00
 281.8608   0.11276788E-01  -0.30789550E+03   0.19092214E+01   0.16131667E-03   0.66560296E+00   0.44314197E+00
 282.8481   0.11304903E-01  -0.30599627E+03   0.19210030E+01   0.16151243E-03   0.66557565E+00   0.44317154E+00
 283.8354   0.11334608E-01  -0.30409585E+03   0.19345620E+01   0.16176244E-03   0.66554649E+00   0.44376270E+00
 284.8228   0.11370364E-01  -0.30218019E+03   0.19437835E+01   0.16191305E-03   0.66551884E+00   0.44366087E+00
 285.8101   0.11392978E-01  -0.30026011E+03   0.19570800E+01   0.16207929E-03   0.66548805E+00   0.44391503E+00
 286.7975   0.11421872E-01  -0.29831401E+03   0.19660930E+01   0.16253709E-03   0.66545891E+00   0.44320656E+00
 287.7848   0.11451588E-01  -0.29639164E+03   0.19781653E+01   0.16257246E-03   0.66542728E+00   0.44372983E+00
 288.7722   0.11475895E-01  -0.29441545E+03   0.19907034E+01   0.16278222E-03   0.66539406E+00   0.44329309E+00
 289.7595   0.11499594E-01  -0.29245113E+03   0.20003594E+01   0.16297345E-03   0.66536188E+00   0.44346920E+00
 290.7468   0.11534387E-01  -0.29047575E+03   0.20094073E+01   0.16312852E-03   0.66532908E+00   0.44392328E+00
 291.7342   0.11569643E-01  -0.28846321E+03   0.20273346E+01   0.16371332E-03   0.66528906E+00   0.44397526E+00
 292.7215   0.11590051E-01  -0.28646639E+03   0.20408866E+01   0.16357596E-03   0.66525104E+00   0.44441384E+00
 293.7089   0.11616067E-01  -0.28447586E+03   0.20480931E+01   0.16382877E-03   0.66521627E+00   0.44406443E+00
 294.6962   0.11645762E-01  -0.28241175E+03   0.20580561E+01   0.16456547E-03   0.66517802E+00   0.44326280E+00
 295.6835   0.11674947E-01  -0.28038992E+03   0.20725671E+01   0.16474779E-03   0.66513582E+00   0.44350235E+00
 296.6709   0.11699451E-01  -0.27834611E+03   0.20861021E+01   0.16453761E-03   0.66509283E+00   0.44388785E+00
 297.6582   0.11735338E-01  -0.27625348E+03   0.20952630E+01   0.16496005E-03   0.66505111E+00   0.44414513E+00
 298.6456   0.11770366E-01  -0.27422434E+03   0.21053926E+01   0.16544101E-03   0.66500823E+00   0.44419502E+00
 299.6329   0.11791412E-01  -0.27212051E+03   0.21200683E+01   0.16541243E-03   0.66495960E+00   0.44447283E+00
 300.6203   0.11820540E-01  -0.27002707E+03   0.21280575E+01   0.16565273E-03   0.66491508E+00   0.44425001E+00
 301.6076   0.11851492E-01  -0.26789634E+03   0.21356621E+01   0.16627370E-03   0.66486913E+00   0.44378201E+00
 302.5949   0.11878471E-01  -0.26577980E+03   0.21434947E+01   0.16634372E-03   0.66482144E+00   0.44392598E+00
 303.5823   0.11909784E-01  -0.26366967E+03   0.21610960E+01   0.16670709E-03   0.66476395E+00   0.44377303E+00
 304.5696   0.11937618E-01  -0.26156197E+03   0.21621291E+01   0.16682761E-03   0.66472018E+00   0.44395462E+00
 305.5570   0.11964693E-01  -0.25939651E+03   0.21690404E+01   0.16689789E-03   0.66466815E+00   0.44417142E+00
 306.5443   0.11989171E-01  -0.25727250E+03   0.21724641E+01   0.16718010E-03   0.66461843E+00   0.44398492E+00
 307.5316   0.12019796E-01  -0.25514013E+03   0.21800563E+01   0.16758329E-03   0.66456356E+00   0.44406019E+00
 308.5190   0.12047182E-01  -0.25295829E+03   0.21797357E+01   0.16779397E-03   0.66451343E+00   0.44403618E+00
 309.5063   0.12083806E-01  -0.25081302E+03   0.21808453E+01   0.16803568E-03   0.66446077E+00   0.44438309E+00
 310.4937   0.12118150E-01  -0.24867402E+03   0.21862571E+01   0.16860036E-03   0.66440310E+00   0.44420554E+00
 311.4810   0.12136845E-01  -0.24650821E+03   0.21900441E+01   0.16860745E-03   0.66434452E+00   0.44417309E+00
 312.4684   0.12168116E-01  -0.24434414E+03   0.21899860E+01   0.16911165E-03   0.66428772E+00   0.44370304E+00
 313.4557   0.12194411E-01  -0.24217318E+03   0.21807106E+01   0.16895774E-03   0.66423910E+00   0.44415336E+00
 314.4430   0.12217952E-01  -0.24002734E+03   0.21732855E+01   0.16914501E-03   0.66418845E+00   0.44424127E+00
 315.4304   0.12249311E-01  -0.23790422E+03   0.21603234E+01   0.16936088E-03   0.66414274E+00   0.44450341E+00
 316.4177   0.12283964E-01  -0.23575367E+03   0.21434207E+01   0.17013666E-03   0.66409974E+00   0.44403518E+00
 317.4051   0.12303676E-01  -0.23365270E+03   0.21294111E+01   0.17008525E-03   0.66405364E+00   0.44410178E+00
 318.3924   0.12342434E-01  -0.23158919E+03   0.21141987E+01   0.17033729E-03   0.66400918E+00   0.44426385E+00
 319.3797   0.12364376E-01  -0.22951592E+03   0.20948412E+01   0.17046907E-03   0.66396824E+00   0.44433194E+00
 320.3671   0.12392338E-01  -0.22740965E+03   0.20718765E+01   0.17075533E-03   0.66393101E+00   0.44429964E+00
 321.3544   0.12417357E-01  -0.22536664E+03   0.20563637E+01   0.17114223E-03   0.66388475E+00   0.44394962E+00
 322.3418   0.12445290E-01  -0.22337227E+03   0.20263712E+01   0.17137081E-03   0.66385780E+00   0.44416948E+00
 323.3291   0.12476012E-01  -0.22138057E+03   0.19996291E+01   0.17121343E-03   0.66382657E+00   0.44470662E+00
 324.3165   0.12499019E-01  -0.21944073E+03   0.19724601E+01   0.17196285E-03   0.66379745E+00   0.44397612E+00
 325.3038   0.12528239E-01  -0.21749231E+03   0.19463488E+01   0.17189835E-03   0.66376563E+00   0.44411142E+00
 326.2911   0.12551442E-01  -0.21557040E+03   0.19073510E+01   0.17193520E-03   0.66375516E+00   0.44432937E+00
 327.2785   0.12573380E-01  -0.21371353E+03   0.18726544E+01   0.17234454E-03   0.66373980E+00   0.44412743E+00
 328.2658   0.12605106E-01  -0.21189738E+03   0.18340567E+01   0.17258751E-03   0.66373256E+00   0.44409025E+00
 329.2532   0.12624358E-01  -0.21008322E+03   0.18002942E+01   0.17219436E-03   0.66371760E+00   0.44474487E+00
 330.2405   0.12652300E-01  -0.20829913E+03   0.17660499E+01   0.17285849E-03   0.66370601E+00   0.44406682E+00
 331.2278   0.12678140E-01  -0.20656434E+03   0.17344197E+01   0.17279657E-03   0.66369153E+00   0.44463492E+00
 332.2152   0.12696450E-01  -0.20489609E+03   0.16988243E+01   0.17311971E-03   0.66368671E+00   0.44400253E+00
 333.2025   0.12726773E-01  -0.20324924E+03   0.16616457E+01   0.17303813E-03   0.66368593E+00   0.44457408E+00
 334.1899   0.12742960E-01  -0.20164214E+03   0.16213095E+01   0.17328422E-03   0.66369411E+00   0.44441537E+00
 335.1772   0.12768701E-01  -0.20002619E+03   0.15865475E+01   0.17347990E-03   0.66369276E+00   0.44407638E+00
 336.1646   0.12792844E-01  -0.19848091E+03   0.15484380E+01   0.17364371E-03   0.66370044E+00   0.44389075E+00
 337.1519   0.12815289E-01  -0.19698836E+03   0.15144533E+01   0.17345814E-03   0.66370390E+00   0.44454749E+00
 338.1392   0.12835963E-01  -0.19549684E+03   0.14764426E+01   0.17345570E-03   0.66371612E+00   0.44454216E+00
 339.1266   0.12855404E-01  -0.19405652E+03   0.14428377E+01   0.17361010E-03   0.66372278E+00   0.44421224E+00
 340.1139   0.12878182E-01  -0.19265371E+03   0.14088107E+01   0.17372708E-03   0.66373370E+00   0.44420378E+00
 341.1013   0.12903671E-01  -0.19128718E+03   0.13793225E+01   0.17387890E-03   0.66373658E+00   0.44443877E+00
 342.0886   0.12921836E-01  -0.18990859E+03   0.13425457E+01   0.17393954E-03   0.66375623E+00   0.44450970E+00
 343.0759   0.12949221E-01  -0.18858831E+03   0.13145661E+01   0.17411508E-03   0.66375988E+00   0.44416181E+00
 344.0633   0.12967084E-01  -0.18733140E+03   0.12868268E+01   0.17394757E-03   0.66376614E+00   0.44471007E+00
 345.0506   0.12978454E-01  -0.18607330E+03   0.12564022E+01   0.17437444E-03   0.66378008E+00   0.44357067E+00
 346.0380   0.13001683E-01  -0.18484162E+03   0.12292577E+01   0.17410178E-03   0.66378842E+00   0.44428808E+00
 347.0253   0.13021806E-01  -0.18364619E+03   0.11997802E+01   0.17414062E-03   0.66380406E+00   0.44437941E+00
 348.0127   0.13041473E-01  -0.18247535E+03   0.11730952E+01   0.17389475E-03   0.66381550E+00   0.44454546E+00
 349.0000   0.13062437E-01  -0.18132796E+03   0.11481575E+01   0.17407045E-03   0.66382419E+00   0.44459360E+00
