 #written on 24Aug2024 at 09:30:16 
 #----------------------------------------------- MONTECARLO ---------------------------------------------------#
 # Temp      Magnetization     Energy_ave          C_M              Sus              U_E              U_M       #
 #--------------------------------------------------------------------------------------------------------------#
   0.5000   0.15228496E-02  -0.35008268E+02   0.99905253E+00   0.28827127E-02   0.66666655E+00   0.33857493E+00
   1.0000   0.21675936E-02  -0.34503025E+02   0.10195741E+01   0.28221099E-02   0.66666618E+00   0.34630072E+00
   1.5000   0.26719584E-02  -0.33993544E+02   0.10231633E+01   0.27775070E-02   0.66666554E+00   0.35295101E+00
   2.0000   0.31064132E-02  -0.33480291E+02   0.10341377E+01   0.27511977E-02   0.66666457E+00   0.35748690E+00
   2.5000   0.34935494E-02  -0.32962748E+02   0.10412708E+01   0.27130663E-02   0.66666327E+00   0.36408233E+00
   3.0000   0.38492583E-02  -0.32440490E+02   0.10483668E+01   0.26941252E-02   0.66666158E+00   0.36835158E+00
   3.5000   0.41800443E-02  -0.31913336E+02   0.10565939E+01   0.26606259E-02   0.66665946E+00   0.37419620E+00
   4.0000   0.44982803E-02  -0.31381162E+02   0.10686315E+01   0.26490694E-02   0.66665683E+00   0.37902379E+00
   4.5000   0.47936144E-02  -0.30843326E+02   0.10790940E+01   0.26298286E-02   0.66665365E+00   0.38313668E+00
   5.0000   0.50780019E-02  -0.30299686E+02   0.10931915E+01   0.26070854E-02   0.66664979E+00   0.38830896E+00
   5.5000   0.53596379E-02  -0.29749901E+02   0.11042759E+01   0.25940993E-02   0.66664527E+00   0.39336804E+00
   6.0000   0.56272066E-02  -0.29193556E+02   0.11198607E+01   0.25921859E-02   0.66663986E+00   0.39661877E+00
   6.5000   0.58904177E-02  -0.28630014E+02   0.11351547E+01   0.25814747E-02   0.66663351E+00   0.40074647E+00
   7.0000   0.61422180E-02  -0.28057948E+02   0.11529285E+01   0.25747111E-02   0.66662600E+00   0.40423985E+00
   7.5000   0.63918030E-02  -0.27477862E+02   0.11691214E+01   0.25652883E-02   0.66661731E+00   0.40842452E+00
   8.0000   0.66373163E-02  -0.26887964E+02   0.11872261E+01   0.25639396E-02   0.66660711E+00   0.41196587E+00
   8.5000   0.68792317E-02  -0.26288304E+02   0.12078926E+01   0.25667305E-02   0.66659511E+00   0.41458577E+00
   9.0000   0.71148817E-02  -0.25676945E+02   0.12347482E+01   0.25670151E-02   0.66658071E+00   0.41758039E+00
   9.5000   0.73495206E-02  -0.25052582E+02   0.12617155E+01   0.25683431E-02   0.66656387E+00   0.42106211E+00
  10.0000   0.75828845E-02  -0.24414007E+02   0.12917376E+01   0.25743016E-02   0.66654388E+00   0.42356900E+00
  10.5000   0.78136337E-02  -0.23760521E+02   0.13248677E+01   0.25848005E-02   0.66652009E+00   0.42561388E+00
  11.0000   0.80456116E-02  -0.23089290E+02   0.13625036E+01   0.25930157E-02   0.66649149E+00   0.42842683E+00
  11.5000   0.82725534E-02  -0.22398764E+02   0.14006086E+01   0.26030834E-02   0.66645754E+00   0.43046658E+00
  12.0000   0.85019953E-02  -0.21686402E+02   0.14495717E+01   0.26173583E-02   0.66641530E+00   0.43307611E+00
  12.5000   0.87267302E-02  -0.20949779E+02   0.14992779E+01   0.26315804E-02   0.66636442E+00   0.43459511E+00
  13.0000   0.89548981E-02  -0.20186946E+02   0.15532192E+01   0.26509005E-02   0.66630197E+00   0.43612881E+00
  13.5000   0.91800110E-02  -0.19394075E+02   0.16159143E+01   0.26672486E-02   0.66622344E+00   0.43788353E+00
  14.0000   0.94076124E-02  -0.18567308E+02   0.16857089E+01   0.26911923E-02   0.66612424E+00   0.43923308E+00
  14.5000   0.96320431E-02  -0.17705100E+02   0.17595706E+01   0.27130228E-02   0.66599895E+00   0.44063211E+00
  15.0000   0.98633207E-02  -0.16802125E+02   0.18534447E+01   0.27403601E-02   0.66583120E+00   0.44147019E+00
  15.5000   0.10086754E-01  -0.15854182E+02   0.19447822E+01   0.27697317E-02   0.66561571E+00   0.44202982E+00
  16.0000   0.10325226E-01  -0.14852046E+02   0.20599758E+01   0.28026185E-02   0.66531588E+00   0.44292505E+00
  16.5000   0.10549669E-01  -0.13794773E+02   0.21878614E+01   0.28331599E-02   0.66489953E+00   0.44366301E+00
  17.0000   0.10780026E-01  -0.12664143E+02   0.23381298E+01   0.28651728E-02   0.66429012E+00   0.44395091E+00
  17.5000   0.11018938E-01  -0.11462883E+02   0.24377526E+01   0.29089060E-02   0.66346035E+00   0.44405354E+00
  18.0000   0.11251698E-01  -0.10303102E+02   0.21197093E+01   0.29462766E-02   0.66299294E+00   0.44436789E+00
  18.5000   0.11443170E-01  -0.94002950E+01   0.15097648E+01   0.29658816E-02   0.66333387E+00   0.44429572E+00
  19.0000   0.11616633E-01  -0.87599390E+01   0.10892366E+01   0.29727099E-02   0.66374688E+00   0.44462165E+00
  19.5000   0.11755445E-01  -0.82795532E+01   0.84472166E+00   0.29715377E-02   0.66400087E+00   0.44403077E+00
  20.0000   0.11883854E-01  -0.78969204E+01   0.69956694E+00   0.29568218E-02   0.66411734E+00   0.44437294E+00
  20.5000   0.12003566E-01  -0.75724846E+01   0.60074884E+00   0.29464201E-02   0.66416780E+00   0.44421437E+00
  21.0000   0.12124519E-01  -0.72909587E+01   0.53122798E+00   0.29262270E-02   0.66416673E+00   0.44490653E+00
  21.5000   0.12240779E-01  -0.70389794E+01   0.47754680E+00   0.29169554E-02   0.66414081E+00   0.44482224E+00
  22.0000   0.12338197E-01  -0.68113946E+01   0.43533163E+00   0.28968648E-02   0.66409292E+00   0.44453257E+00
  22.5000   0.12438741E-01  -0.66029573E+01   0.40026800E+00   0.28849896E-02   0.66403371E+00   0.44412182E+00
  23.0000   0.12533023E-01  -0.64102695E+01   0.37071428E+00   0.28639178E-02   0.66396354E+00   0.44420741E+00
  23.5000   0.12626197E-01  -0.62315964E+01   0.34535209E+00   0.28425309E-02   0.66388553E+00   0.44453608E+00
  24.0000   0.12724149E-01  -0.60647679E+01   0.32218876E+00   0.28282106E-02   0.66381001E+00   0.44412202E+00
  24.5000   0.12806303E-01  -0.59086167E+01   0.30260347E+00   0.28042774E-02   0.66372206E+00   0.44448237E+00
  25.0000   0.12900359E-01  -0.57616298E+01   0.28522788E+00   0.27890104E-02   0.66362777E+00   0.44443533E+00
  25.5000   0.12975207E-01  -0.56228175E+01   0.26910081E+00   0.27675454E-02   0.66353535E+00   0.44429397E+00
  26.0000   0.13055261E-01  -0.54917614E+01   0.25520405E+00   0.27455899E-02   0.66343081E+00   0.44436654E+00
  26.5000   0.13134347E-01  -0.53677964E+01   0.24177068E+00   0.27229023E-02   0.66333348E+00   0.44482282E+00
  27.0000   0.13206885E-01  -0.52494822E+01   0.23009660E+00   0.27059185E-02   0.66322438E+00   0.44445758E+00
  27.5000   0.13278826E-01  -0.51372575E+01   0.21942263E+00   0.26856900E-02   0.66311096E+00   0.44432988E+00
  28.0000   0.13349226E-01  -0.50300454E+01   0.20916866E+00   0.26612491E-02   0.66300256E+00   0.44504909E+00
  28.5000   0.13420730E-01  -0.49280962E+01   0.19988004E+00   0.26449267E-02   0.66288795E+00   0.44460323E+00
  29.0000   0.13486577E-01  -0.48300071E+01   0.19111434E+00   0.26279282E-02   0.66277267E+00   0.44418932E+00
  29.5000   0.13555286E-01  -0.47365829E+01   0.18315645E+00   0.26103778E-02   0.66265214E+00   0.44434066E+00
  30.0000   0.13616624E-01  -0.46469925E+01   0.17580017E+00   0.25900465E-02   0.66252712E+00   0.44449108E+00
  30.5000   0.13681634E-01  -0.45607097E+01   0.16873311E+00   0.25713720E-02   0.66240418E+00   0.44438836E+00
  31.0000   0.13740819E-01  -0.44781831E+01   0.16208595E+00   0.25506742E-02   0.66227999E+00   0.44438356E+00
  31.5000   0.13796989E-01  -0.43984921E+01   0.15618049E+00   0.25299103E-02   0.66214309E+00   0.44453666E+00
  32.0000   0.13858548E-01  -0.43218030E+01   0.15024374E+00   0.25123567E-02   0.66201566E+00   0.44453858E+00
  32.5000   0.13912572E-01  -0.42478119E+01   0.14479844E+00   0.24959299E-02   0.66188181E+00   0.44432950E+00
  33.0000   0.13967636E-01  -0.41767607E+01   0.13989789E+00   0.24790582E-02   0.66173717E+00   0.44411473E+00
  33.5000   0.14023788E-01  -0.41082659E+01   0.13490540E+00   0.24576293E-02   0.66160519E+00   0.44448756E+00
  34.0000   0.14077525E-01  -0.40420277E+01   0.13033182E+00   0.24411437E-02   0.66146273E+00   0.44457541E+00
  34.5000   0.14131787E-01  -0.39778472E+01   0.12594411E+00   0.24275157E-02   0.66132208E+00   0.44410631E+00
  35.0000   0.14175961E-01  -0.39160014E+01   0.12202853E+00   0.24063075E-02   0.66116838E+00   0.44420913E+00
  35.5000   0.14228965E-01  -0.38561119E+01   0.11804424E+00   0.23911669E-02   0.66102439E+00   0.44420844E+00
  36.0000   0.14273718E-01  -0.37980764E+01   0.11422220E+00   0.23700476E-02   0.66087959E+00   0.44446809E+00
  36.5000   0.14324135E-01  -0.37416543E+01   0.11060337E+00   0.23579484E-02   0.66073239E+00   0.44410531E+00
  37.0000   0.14373783E-01  -0.36869416E+01   0.10742996E+00   0.23401215E-02   0.66056960E+00   0.44446802E+00
  37.5000   0.14420671E-01  -0.36344216E+01   0.10402273E+00   0.23186047E-02   0.66042580E+00   0.44491099E+00
  38.0000   0.14459924E-01  -0.35831358E+01   0.10110618E+00   0.23058670E-02   0.66025919E+00   0.44410493E+00
  38.5000   0.14505907E-01  -0.35335271E+01   0.98257017E-01   0.22885338E-02   0.66009552E+00   0.44450261E+00
  39.0000   0.14545826E-01  -0.34850453E+01   0.95338485E-01   0.22705443E-02   0.65994230E+00   0.44453022E+00
  39.5000   0.14586245E-01  -0.34378776E+01   0.92808245E-01   0.22570146E-02   0.65976766E+00   0.44450806E+00
  40.0000   0.14630195E-01  -0.33921465E+01   0.90192455E-01   0.22415617E-02   0.65960650E+00   0.44440680E+00
