 #written on 30Jul2024 at 21:53:51 
 #----------------------------------------------- MONTECARLO ---------------------------------------------------#
 # Temp      Magnetization     Energy_ave          C_M              Sus              U_E              U_M       #
 #--------------------------------------------------------------------------------------------------------------#
  66.0000   0.12194945E-01  -0.15482063E+03   0.13193375E+01   0.86077846E-03   0.66650694E+00   0.42104952E+00
  67.0000   0.12298520E-01  -0.15349638E+03   0.13346429E+01   0.85889206E-03   0.66649727E+00   0.42273395E+00
  68.0000   0.12432627E-01  -0.15214807E+03   0.13471026E+01   0.86446762E-03   0.66648743E+00   0.42251460E+00
  69.0000   0.12549198E-01  -0.15079453E+03   0.13600859E+01   0.86495213E-03   0.66647696E+00   0.42396247E+00
  70.0000   0.12681801E-01  -0.14943272E+03   0.13696167E+01   0.86969365E-03   0.66646647E+00   0.42455580E+00
  71.0000   0.12803050E-01  -0.14805632E+03   0.13830742E+01   0.87099546E-03   0.66645481E+00   0.42522265E+00
  72.0000   0.12933719E-01  -0.14666621E+03   0.14000401E+01   0.87208774E-03   0.66644195E+00   0.42727251E+00
  73.0000   0.13049503E-01  -0.14526275E+03   0.14128635E+01   0.87642162E-03   0.66642901E+00   0.42699409E+00
  74.0000   0.13182421E-01  -0.14384095E+03   0.14289174E+01   0.87729585E-03   0.66641478E+00   0.42883231E+00
  75.0000   0.13315393E-01  -0.14240588E+03   0.14441564E+01   0.88299617E-03   0.66639990E+00   0.42910712E+00
  76.0000   0.13448900E-01  -0.14095923E+03   0.14579870E+01   0.88439547E-03   0.66638443E+00   0.43034827E+00
  77.0000   0.13562829E-01  -0.13949256E+03   0.14702920E+01   0.88996326E-03   0.66636833E+00   0.42965740E+00
  78.0000   0.13698167E-01  -0.13801233E+03   0.14909629E+01   0.89096084E-03   0.66634954E+00   0.43140474E+00
  79.0000   0.13835269E-01  -0.13650771E+03   0.15091981E+01   0.89795489E-03   0.66633009E+00   0.43133246E+00
  80.0000   0.13965864E-01  -0.13500400E+03   0.15327218E+01   0.90086774E-03   0.66630831E+00   0.43237273E+00
  81.0000   0.14097218E-01  -0.13345932E+03   0.15478840E+01   0.90367050E-03   0.66628707E+00   0.43350798E+00
  82.0000   0.14228060E-01  -0.13190945E+03   0.15618517E+01   0.90583356E-03   0.66626483E+00   0.43449976E+00
  83.0000   0.14370204E-01  -0.13033290E+03   0.15851640E+01   0.91299755E-03   0.66623872E+00   0.43498726E+00
  84.0000   0.14513493E-01  -0.12872896E+03   0.16087748E+01   0.91595550E-03   0.66621069E+00   0.43626292E+00
  85.0000   0.14654711E-01  -0.12711642E+03   0.16323054E+01   0.92380221E-03   0.66618090E+00   0.43565545E+00
  86.0000   0.14787931E-01  -0.12547583E+03   0.16501610E+01   0.92630844E-03   0.66615076E+00   0.43661465E+00
  87.0000   0.14922298E-01  -0.12381450E+03   0.16684391E+01   0.93307434E-03   0.66611847E+00   0.43628101E+00
  88.0000   0.15068368E-01  -0.12213105E+03   0.16920614E+01   0.93849803E-03   0.66608214E+00   0.43707864E+00
  89.0000   0.15215108E-01  -0.12041904E+03   0.17234105E+01   0.94438153E-03   0.66604031E+00   0.43781038E+00
  90.0000   0.15348972E-01  -0.11868699E+03   0.17466788E+01   0.94988518E-03   0.66599844E+00   0.43841961E+00
  91.0000   0.15508768E-01  -0.11692596E+03   0.17781867E+01   0.95790900E-03   0.66595016E+00   0.43816702E+00
  92.0000   0.15640105E-01  -0.11514079E+03   0.18036379E+01   0.96240262E-03   0.66590068E+00   0.43906217E+00
  93.0000   0.15808464E-01  -0.11331976E+03   0.18325756E+01   0.97139734E-03   0.66584571E+00   0.43936617E+00
  94.0000   0.15954379E-01  -0.11146960E+03   0.18652728E+01   0.97719260E-03   0.66578460E+00   0.43992248E+00
  95.0000   0.16099634E-01  -0.10960601E+03   0.18880839E+01   0.98384369E-03   0.66572348E+00   0.44017161E+00
  96.0000   0.16246596E-01  -0.10768635E+03   0.19177592E+01   0.99132897E-03   0.66565331E+00   0.44029364E+00
  97.0000   0.16415639E-01  -0.10574119E+03   0.19596241E+01   0.99988127E-03   0.66557049E+00   0.44084987E+00
  98.0000   0.16587548E-01  -0.10376650E+03   0.19895000E+01   0.10087061E-02   0.66548737E+00   0.44137999E+00
  99.0000   0.16740879E-01  -0.10175955E+03   0.20285429E+01   0.10185603E-02   0.66539081E+00   0.44146233E+00
 100.0000   0.16905619E-01  -0.99715297E+02   0.20647169E+01   0.10252247E-02   0.66528699E+00   0.44201488E+00
 101.0000   0.17057399E-01  -0.97643465E+02   0.20975782E+01   0.10339982E-02   0.66517602E+00   0.44207725E+00
 102.0000   0.17233286E-01  -0.95514840E+02   0.21325281E+01   0.10426756E-02   0.66505143E+00   0.44250383E+00
 103.0000   0.17382963E-01  -0.93353784E+02   0.21630390E+01   0.10517672E-02   0.66491822E+00   0.44251841E+00
 104.0000   0.17577904E-01  -0.91179473E+02   0.21906142E+01   0.10646387E-02   0.66477379E+00   0.44257884E+00
 105.0000   0.17727776E-01  -0.88983220E+02   0.22033488E+01   0.10711373E-02   0.66462941E+00   0.44288401E+00
 106.0000   0.17897103E-01  -0.86795480E+02   0.22022813E+01   0.10835368E-02   0.66448406E+00   0.44231201E+00
 107.0000   0.18062674E-01  -0.84608904E+02   0.21737384E+01   0.10905860E-02   0.66435587E+00   0.44352156E+00
 108.0000   0.18231133E-01  -0.82443648E+02   0.21458386E+01   0.11023293E-02   0.66421745E+00   0.44303299E+00
 109.0000   0.18401475E-01  -0.80327028E+02   0.20760333E+01   0.11062459E-02   0.66412318E+00   0.44442306E+00
 110.0000   0.18558950E-01  -0.78302763E+02   0.20014143E+01   0.11171432E-02   0.66403656E+00   0.44349499E+00
 111.0000   0.18707734E-01  -0.76332222E+02   0.19039854E+01   0.11239300E-02   0.66398274E+00   0.44405788E+00
 112.0000   0.18839991E-01  -0.74485042E+02   0.17956210E+01   0.11320477E-02   0.66395860E+00   0.44349530E+00
 113.0000   0.18976650E-01  -0.72750181E+02   0.16803753E+01   0.11382999E-02   0.66396070E+00   0.44364177E+00
 114.0000   0.19085499E-01  -0.71116623E+02   0.15750373E+01   0.11395748E-02   0.66396391E+00   0.44409901E+00
 115.0000   0.19197678E-01  -0.69611152E+02   0.14633348E+01   0.11433789E-02   0.66399870E+00   0.44370178E+00
 116.0000   0.19320342E-01  -0.68179028E+02   0.13616904E+01   0.11475551E-02   0.66403310E+00   0.44403189E+00
 117.0000   0.19437472E-01  -0.66875307E+02   0.12694267E+01   0.11523889E-02   0.66406981E+00   0.44363461E+00
 118.0000   0.19505127E-01  -0.65649831E+02   0.11803431E+01   0.11495640E-02   0.66411804E+00   0.44402079E+00
 119.0000   0.19584504E-01  -0.64501650E+02   0.11086939E+01   0.11510001E-02   0.66414475E+00   0.44390376E+00
 120.0000   0.19679313E-01  -0.63428419E+02   0.10391975E+01   0.11518781E-02   0.66418099E+00   0.44403099E+00
 121.0000   0.19752460E-01  -0.62421784E+02   0.97830322E+00   0.11503646E-02   0.66421004E+00   0.44430337E+00
 122.0000   0.19818391E-01  -0.61480419E+02   0.91908647E+00   0.11466472E-02   0.66424872E+00   0.44481210E+00
 123.0000   0.19875175E-01  -0.60587000E+02   0.87406771E+00   0.11428997E-02   0.66426027E+00   0.44451644E+00
 124.0000   0.19939888E-01  -0.59720617E+02   0.82708240E+00   0.11452774E-02   0.66428487E+00   0.44351236E+00
 125.0000   0.20009234E-01  -0.58914987E+02   0.78527335E+00   0.11398027E-02   0.66430593E+00   0.44445616E+00
 126.0000   0.20058705E-01  -0.58151664E+02   0.75104892E+00   0.11397594E-02   0.66431287E+00   0.44414224E+00
 127.0000   0.20112809E-01  -0.57417040E+02   0.71762048E+00   0.11335622E-02   0.66432306E+00   0.44424890E+00
 128.0000   0.20163668E-01  -0.56712889E+02   0.68697979E+00   0.11316987E-02   0.66433077E+00   0.44493263E+00
 129.0000   0.20196257E-01  -0.56040931E+02   0.66094892E+00   0.11267724E-02   0.66432963E+00   0.44431478E+00
 130.0000   0.20251533E-01  -0.55389315E+02   0.63375934E+00   0.11211762E-02   0.66433741E+00   0.44490027E+00
 131.0000   0.20290675E-01  -0.54760693E+02   0.61277853E+00   0.11186461E-02   0.66432756E+00   0.44493457E+00
 132.0000   0.20341706E-01  -0.54166086E+02   0.59148927E+00   0.11161981E-02   0.66432355E+00   0.44475837E+00
 133.0000   0.20382274E-01  -0.53583080E+02   0.57129677E+00   0.11146004E-02   0.66431970E+00   0.44393406E+00
 134.0000   0.20416654E-01  -0.53023381E+02   0.55213979E+00   0.11073290E-02   0.66431548E+00   0.44476182E+00
 135.0000   0.20426244E-01  -0.52480638E+02   0.53515745E+00   0.11002517E-02   0.66430526E+00   0.44492078E+00
 136.0000   0.20485320E-01  -0.51949689E+02   0.51929168E+00   0.11004513E-02   0.66429351E+00   0.44443479E+00
 137.0000   0.20504678E-01  -0.51437605E+02   0.50394302E+00   0.10931047E-02   0.66428305E+00   0.44420039E+00
 138.0000   0.20543470E-01  -0.50942143E+02   0.48940944E+00   0.10904109E-02   0.66427261E+00   0.44373794E+00
 139.0000   0.20572410E-01  -0.50463260E+02   0.47595087E+00   0.10864922E-02   0.66425962E+00   0.44414437E+00
 140.0000   0.20596449E-01  -0.49986037E+02   0.46308371E+00   0.10809138E-02   0.66424566E+00   0.44405945E+00
 141.0000   0.20609119E-01  -0.49532737E+02   0.45241021E+00   0.10716896E-02   0.66422334E+00   0.44448568E+00
 142.0000   0.20640486E-01  -0.49085927E+02   0.44008822E+00   0.10684590E-02   0.66421242E+00   0.44464860E+00
 143.0000   0.20679831E-01  -0.48650821E+02   0.42880553E+00   0.10648615E-02   0.66419805E+00   0.44445333E+00
 144.0000   0.20705339E-01  -0.48228754E+02   0.41908328E+00   0.10630287E-02   0.66417762E+00   0.44376899E+00
 145.0000   0.20722499E-01  -0.47811675E+02   0.40897575E+00   0.10568816E-02   0.66416134E+00   0.44392579E+00
