 #written on 16Dec2024 at 12:26:20 
 #----------------------------------------------- MONTECARLO ---------------------------------------------------#
 # Temp      Magnetization     Energy_ave          C_M              Sus              U_E              U_M       #
 #--------------------------------------------------------------------------------------------------------------#
  10.0000   0.90373624E+00  -0.85523492E+02   0.10592077E+01   0.39193705E-02   0.66665701E+00   0.66663474E+00
  11.0000   0.89326861E+00  -0.84453362E+02   0.10793515E+01   0.46421819E-02   0.66665446E+00   0.66662412E+00
  12.0000   0.88272982E+00  -0.83376647E+02   0.10871259E+01   0.50254874E-02   0.66665166E+00   0.66661521E+00
  13.0000   0.87196392E+00  -0.82287543E+02   0.10917770E+01   0.54724675E-02   0.66664850E+00   0.66660447E+00
  14.0000   0.86103468E+00  -0.81191958E+02   0.11081195E+01   0.60995561E-02   0.66664471E+00   0.66659014E+00
  15.0000   0.84989309E+00  -0.80083626E+02   0.11123273E+01   0.67015730E-02   0.66664066E+00   0.66657424E+00
  16.0000   0.83846541E+00  -0.78964361E+02   0.11249382E+01   0.73538592E-02   0.66663588E+00   0.66655557E+00
  17.0000   0.82685646E+00  -0.77833324E+02   0.11309959E+01   0.79099140E-02   0.66663071E+00   0.66653615E+00
  18.0000   0.81496629E+00  -0.76688665E+02   0.11491444E+01   0.86761469E-02   0.66662448E+00   0.66651069E+00
  19.0000   0.80273387E+00  -0.75531106E+02   0.11654536E+01   0.94268567E-02   0.66661752E+00   0.66648238E+00
  20.0000   0.79016237E+00  -0.74357942E+02   0.11798750E+01   0.10377759E-01   0.66660978E+00   0.66644643E+00
  21.0000   0.77736182E+00  -0.73167951E+02   0.11998216E+01   0.11188482E-01   0.66660080E+00   0.66640923E+00
  22.0000   0.76424560E+00  -0.71961557E+02   0.12219977E+01   0.12181868E-01   0.66659056E+00   0.66636306E+00
  23.0000   0.75056529E+00  -0.70733480E+02   0.12381978E+01   0.13038364E-01   0.66657943E+00   0.66631449E+00
  24.0000   0.73636736E+00  -0.69484005E+02   0.12576328E+01   0.14160002E-01   0.66656669E+00   0.66625238E+00
  25.0000   0.72189767E+00  -0.68212987E+02   0.12913422E+01   0.15406970E-01   0.66655109E+00   0.66617850E+00
  26.0000   0.70641973E+00  -0.66906961E+02   0.13204489E+01   0.16899863E-01   0.66653383E+00   0.66608560E+00
  27.0000   0.69050805E+00  -0.65573864E+02   0.13497306E+01   0.18262707E-01   0.66651423E+00   0.66598472E+00
  28.0000   0.67367034E+00  -0.64207128E+02   0.13871540E+01   0.20115622E-01   0.66649094E+00   0.66584920E+00
  29.0000   0.65588345E+00  -0.62801781E+02   0.14281408E+01   0.22364990E-01   0.66646384E+00   0.66567512E+00
  30.0000   0.63690402E+00  -0.61346121E+02   0.14726250E+01   0.24801140E-01   0.66643212E+00   0.66546268E+00
  31.0000   0.61640881E+00  -0.59842358E+02   0.15328932E+01   0.28221787E-01   0.66639273E+00   0.66515860E+00
  32.0000   0.59410531E+00  -0.58281653E+02   0.15993972E+01   0.31875787E-01   0.66634563E+00   0.66477727E+00
  33.0000   0.56968544E+00  -0.56649925E+02   0.16723090E+01   0.37253194E-01   0.66628890E+00   0.66419930E+00
  34.0000   0.54283317E+00  -0.54947904E+02   0.17431545E+01   0.43465891E-01   0.66622245E+00   0.66341704E+00
  35.0000   0.51178640E+00  -0.53150876E+02   0.18413407E+01   0.53793663E-01   0.66613540E+00   0.66205418E+00
  36.0000   0.47607666E+00  -0.51255734E+02   0.19544943E+01   0.69054205E-01   0.66602531E+00   0.65971808E+00
  37.0000   0.43327102E+00  -0.49247863E+02   0.20808350E+01   0.95347023E-01   0.66588571E+00   0.65511272E+00
  38.0000   0.37846975E+00  -0.47082194E+02   0.22244511E+01   0.14887043E+00   0.66570337E+00   0.64377199E+00
  39.0000   0.31110351E+00  -0.44835260E+02   0.22580033E+01   0.22286873E+00   0.66552927E+00   0.61800013E+00
  40.0000   0.23822301E+00  -0.42688704E+02   0.19911591E+01   0.25016225E+00   0.66549985E+00   0.57207000E+00
  41.0000   0.18218689E+00  -0.40885962E+02   0.16215504E+01   0.20466013E+00   0.66557753E+00   0.52530788E+00
  42.0000   0.14548958E+00  -0.39400878E+02   0.13657473E+01   0.14945751E+00   0.66563090E+00   0.49442041E+00
  43.0000   0.12182743E+00  -0.38127508E+02   0.11904210E+01   0.11037099E+00   0.66565677E+00   0.47614786E+00
  44.0000   0.10562940E+00  -0.36993031E+02   0.10751154E+01   0.84837901E-01   0.66565247E+00   0.46458825E+00
  45.0000   0.94285901E-01  -0.35965156E+02   0.98540520E+00   0.66584080E-01   0.66563850E+00   0.46156480E+00
  46.0000   0.85597392E-01  -0.35016319E+02   0.91415765E+00   0.54729160E-01   0.66561535E+00   0.45571535E+00
  47.0000   0.78934941E-01  -0.34132397E+02   0.86055310E+00   0.45927223E-01   0.66557947E+00   0.45315390E+00
  48.0000   0.73484265E-01  -0.33298193E+02   0.80749791E+00   0.39282969E-01   0.66554872E+00   0.45122628E+00
  49.0000   0.69111128E-01  -0.32517205E+02   0.76111990E+00   0.34037384E-01   0.66551523E+00   0.45021701E+00
  50.0000   0.65418391E-01  -0.31774560E+02   0.72610249E+00   0.30113158E-01   0.66546906E+00   0.44915875E+00
  51.0000   0.62256754E-01  -0.31070151E+02   0.68745490E+00   0.26716468E-01   0.66543281E+00   0.44895512E+00
  52.0000   0.59573962E-01  -0.30400775E+02   0.65353724E+00   0.24074629E-01   0.66539331E+00   0.44750469E+00
  53.0000   0.57201545E-01  -0.29760498E+02   0.62285786E+00   0.21728948E-01   0.66535140E+00   0.44822936E+00
  54.0000   0.55140196E-01  -0.29151059E+02   0.59608405E+00   0.19831839E-01   0.66530447E+00   0.44801965E+00
  55.0000   0.53284042E-01  -0.28565128E+02   0.57101925E+00   0.18286182E-01   0.66525711E+00   0.44649010E+00
  56.0000   0.51613477E-01  -0.28007787E+02   0.54835818E+00   0.16819306E-01   0.66520688E+00   0.44704287E+00
  57.0000   0.50113451E-01  -0.27469267E+02   0.52504375E+00   0.15592680E-01   0.66516169E+00   0.44648347E+00
  58.0000   0.48770112E-01  -0.26955519E+02   0.50426023E+00   0.14495345E-01   0.66511243E+00   0.44687434E+00
  59.0000   0.47539601E-01  -0.26458888E+02   0.48603644E+00   0.13535599E-01   0.66505795E+00   0.44650746E+00
  60.0000   0.46445528E-01  -0.25984036E+02   0.46791297E+00   0.12762332E-01   0.66500570E+00   0.44521963E+00
  61.0000   0.45416721E-01  -0.25524299E+02   0.45064338E+00   0.11999241E-01   0.66495361E+00   0.44578109E+00
  62.0000   0.44453877E-01  -0.25082524E+02   0.43425890E+00   0.11280139E-01   0.66490073E+00   0.44621200E+00
  63.0000   0.43593644E-01  -0.24655665E+02   0.41944376E+00   0.10680103E-01   0.66484418E+00   0.44619258E+00
  64.0000   0.42771306E-01  -0.24242153E+02   0.40443687E+00   0.10161403E-01   0.66479084E+00   0.44507640E+00
  65.0000   0.42052296E-01  -0.23845529E+02   0.39237437E+00   0.96664023E-02   0.66472676E+00   0.44529199E+00
  66.0000   0.41349197E-01  -0.23461822E+02   0.37816640E+00   0.92004974E-02   0.66467572E+00   0.44539355E+00
  67.0000   0.40653315E-01  -0.23086042E+02   0.36728814E+00   0.87586169E-02   0.66460862E+00   0.44556055E+00
  68.0000   0.40029580E-01  -0.22726444E+02   0.35483491E+00   0.84021141E-02   0.66455335E+00   0.44444789E+00
  69.0000   0.39466660E-01  -0.22377063E+02   0.34291498E+00   0.80072996E-02   0.66449785E+00   0.44598335E+00
  70.0000   0.38944347E-01  -0.22038078E+02   0.33382264E+00   0.76796123E-02   0.66442648E+00   0.44587935E+00
  71.0000   0.38401271E-01  -0.21711057E+02   0.32367720E+00   0.73723818E-02   0.66436455E+00   0.44581439E+00
  72.0000   0.37936868E-01  -0.21392053E+02   0.31451143E+00   0.71020250E-02   0.66429713E+00   0.44535852E+00
  73.0000   0.37497445E-01  -0.21084658E+02   0.30444997E+00   0.68351264E-02   0.66423996E+00   0.44559616E+00
  74.0000   0.37075651E-01  -0.20782791E+02   0.29575230E+00   0.65923086E-02   0.66417310E+00   0.44553117E+00
  75.0000   0.36667664E-01  -0.20487703E+02   0.28807285E+00   0.63709244E-02   0.66409976E+00   0.44548792E+00
  76.0000   0.36244804E-01  -0.20206695E+02   0.27867557E+00   0.61619224E-02   0.66404638E+00   0.44441393E+00
  77.0000   0.35855537E-01  -0.19929871E+02   0.27208919E+00   0.59340632E-02   0.66396644E+00   0.44529318E+00
  78.0000   0.35525283E-01  -0.19659669E+02   0.26478482E+00   0.57536836E-02   0.66389575E+00   0.44501836E+00
  79.0000   0.35195055E-01  -0.19400968E+02   0.25813028E+00   0.55756516E-02   0.66382160E+00   0.44514966E+00
  80.0000   0.34868854E-01  -0.19146848E+02   0.25045338E+00   0.54118183E-02   0.66376091E+00   0.44445122E+00
  81.0000   0.34552832E-01  -0.18896131E+02   0.24460124E+00   0.52437344E-02   0.66367958E+00   0.44526959E+00
  82.0000   0.34246950E-01  -0.18656917E+02   0.23856228E+00   0.50756867E-02   0.66360466E+00   0.44545507E+00
  83.0000   0.33954071E-01  -0.18420303E+02   0.23238080E+00   0.49452810E-02   0.66353132E+00   0.44483149E+00
  84.0000   0.33706551E-01  -0.18192088E+02   0.22668090E+00   0.47997324E-02   0.66345560E+00   0.44552866E+00
  85.0000   0.33453947E-01  -0.17967754E+02   0.22170858E+00   0.46820810E-02   0.66337027E+00   0.44529893E+00
  86.0000   0.33202257E-01  -0.17748118E+02   0.21636618E+00   0.45596628E-02   0.66329171E+00   0.44500827E+00
  87.0000   0.32966224E-01  -0.17534933E+02   0.21082853E+00   0.44410341E-02   0.66321964E+00   0.44507706E+00
  88.0000   0.32736274E-01  -0.17327121E+02   0.20555805E+00   0.43284388E-02   0.66314538E+00   0.44523358E+00
  89.0000   0.32483481E-01  -0.17122457E+02   0.20075244E+00   0.42117244E-02   0.66306418E+00   0.44506743E+00
  90.0000   0.32285930E-01  -0.16924737E+02   0.19673523E+00   0.41125974E-02   0.66297306E+00   0.44521878E+00
  91.0000   0.32082937E-01  -0.16730030E+02   0.19209674E+00   0.40172748E-02   0.66289338E+00   0.44503606E+00
  92.0000   0.31853041E-01  -0.16540392E+02   0.18781655E+00   0.39265595E-02   0.66280941E+00   0.44474620E+00
  93.0000   0.31676561E-01  -0.16354401E+02   0.18293971E+00   0.38439009E-02   0.66274010E+00   0.44463851E+00
  94.0000   0.31472309E-01  -0.16173002E+02   0.17944887E+00   0.37428826E-02   0.66264208E+00   0.44559974E+00
  95.0000   0.31312580E-01  -0.15995971E+02   0.17575523E+00   0.36691792E-02   0.66255149E+00   0.44516984E+00
  96.0000   0.31125958E-01  -0.15822228E+02   0.17150688E+00   0.35954857E-02   0.66247684E+00   0.44457607E+00
  97.0000   0.30985251E-01  -0.15652510E+02   0.16835177E+00   0.35198261E-02   0.66237559E+00   0.44508366E+00
  98.0000   0.30813724E-01  -0.15487322E+02   0.16449225E+00   0.34390456E-02   0.66229701E+00   0.44533646E+00
  99.0000   0.30671643E-01  -0.15324698E+02   0.16116390E+00   0.33787841E-02   0.66220357E+00   0.44535921E+00
 100.0000   0.30526263E-01  -0.15163665E+02   0.15785782E+00   0.33091720E-02   0.66211262E+00   0.44543908E+00
 101.0000   0.30368355E-01  -0.15009218E+02   0.15476456E+00   0.32454218E-02   0.66201833E+00   0.44509725E+00
 102.0000   0.30204448E-01  -0.14856246E+02   0.15107032E+00   0.31851523E-02   0.66194303E+00   0.44424077E+00
 103.0000   0.30043254E-01  -0.14704333E+02   0.14839931E+00   0.31187054E-02   0.66183722E+00   0.44490199E+00
 104.0000   0.29934386E-01  -0.14557951E+02   0.14555993E+00   0.30620759E-02   0.66174018E+00   0.44516848E+00
 105.0000   0.29837138E-01  -0.14415049E+02   0.14269228E+00   0.30180254E-02   0.66164685E+00   0.44464312E+00
 106.0000   0.29676463E-01  -0.14273356E+02   0.13995483E+00   0.29486718E-02   0.66154991E+00   0.44554799E+00
 107.0000   0.29562197E-01  -0.14135128E+02   0.13750975E+00   0.29082676E-02   0.66144197E+00   0.44487581E+00
 108.0000   0.29448550E-01  -0.13999221E+02   0.13475389E+00   0.28601096E-02   0.66135067E+00   0.44474877E+00
 109.0000   0.29302894E-01  -0.13864755E+02   0.13211759E+00   0.28009796E-02   0.66125408E+00   0.44519646E+00
