 #written on 12Sep2024 at 13:56:31 
 #----------------------------------------------- MONTECARLO ---------------------------------------------------#
 # Temp      Magnetization     Energy_ave          C_M              Sus              U_E              U_M       #
 #--------------------------------------------------------------------------------------------------------------#
  10.0000   0.40187213E-02  -0.11362932E+03   0.10501737E+01   0.65420377E-03   0.66666173E+00   0.43279770E+00
  11.0000   0.42228538E-02  -0.11258326E+03   0.10539917E+01   0.65411531E-03   0.66666056E+00   0.43386897E+00
  12.0000   0.44217417E-02  -0.11152689E+03   0.10599443E+01   0.65722149E-03   0.66665922E+00   0.43364111E+00
  13.0000   0.46125500E-02  -0.11046809E+03   0.10597444E+01   0.66032531E-03   0.66665776E+00   0.43396355E+00
  14.0000   0.47936360E-02  -0.10939955E+03   0.10693848E+01   0.66012867E-03   0.66665604E+00   0.43504865E+00
  15.0000   0.49787708E-02  -0.10832581E+03   0.10803442E+01   0.66224906E-03   0.66665410E+00   0.43619651E+00
  16.0000   0.51496388E-02  -0.10724715E+03   0.10831709E+01   0.66396622E-03   0.66665204E+00   0.43600473E+00
  17.0000   0.53260123E-02  -0.10615768E+03   0.10924230E+01   0.66815303E-03   0.66664967E+00   0.43594659E+00
  18.0000   0.54842478E-02  -0.10506442E+03   0.10960116E+01   0.67133804E-03   0.66664715E+00   0.43568008E+00
  19.0000   0.56544302E-02  -0.10396252E+03   0.11069841E+01   0.67248920E-03   0.66664423E+00   0.43711830E+00
  20.0000   0.58155520E-02  -0.10285460E+03   0.11176998E+01   0.67419453E-03   0.66664102E+00   0.43740483E+00
  21.0000   0.59708473E-02  -0.10173513E+03   0.11225858E+01   0.67564556E-03   0.66663764E+00   0.43838913E+00
  22.0000   0.61226526E-02  -0.10060650E+03   0.11319364E+01   0.67729489E-03   0.66663382E+00   0.43888512E+00
  23.0000   0.62747577E-02  -0.99473523E+02   0.11446318E+01   0.67995518E-03   0.66662954E+00   0.43973905E+00
  24.0000   0.64277913E-02  -0.98325312E+02   0.11524622E+01   0.68365106E-03   0.66662501E+00   0.43934549E+00
  25.0000   0.65741169E-02  -0.97167888E+02   0.11620067E+01   0.68680432E-03   0.66662000E+00   0.43914223E+00
  26.0000   0.67282320E-02  -0.96003416E+02   0.11725980E+01   0.68977711E-03   0.66661449E+00   0.44040136E+00
  27.0000   0.68706713E-02  -0.94821968E+02   0.11889378E+01   0.69058989E-03   0.66660818E+00   0.44097050E+00
  28.0000   0.70171121E-02  -0.93632125E+02   0.11961481E+01   0.69515103E-03   0.66660177E+00   0.44066579E+00
  29.0000   0.71512587E-02  -0.92430273E+02   0.12074971E+01   0.69719137E-03   0.66659456E+00   0.44077987E+00
  30.0000   0.72916029E-02  -0.91214761E+02   0.12212526E+01   0.70000012E-03   0.66658653E+00   0.44103943E+00
  31.0000   0.74336620E-02  -0.89981340E+02   0.12382263E+01   0.70435918E-03   0.66657752E+00   0.44102042E+00
  32.0000   0.75715737E-02  -0.88734958E+02   0.12565068E+01   0.70642343E-03   0.66656755E+00   0.44195975E+00
  33.0000   0.77158339E-02  -0.87469748E+02   0.12711024E+01   0.71048060E-03   0.66655693E+00   0.44193866E+00
  34.0000   0.78512452E-02  -0.86184215E+02   0.12907679E+01   0.71324616E-03   0.66654482E+00   0.44267027E+00
  35.0000   0.79790586E-02  -0.84885819E+02   0.13127168E+01   0.71794365E-03   0.66653131E+00   0.44167986E+00
  36.0000   0.81239931E-02  -0.83558985E+02   0.13356602E+01   0.72095703E-03   0.66651631E+00   0.44270371E+00
  37.0000   0.82550170E-02  -0.82213114E+02   0.13587791E+01   0.72349187E-03   0.66649977E+00   0.44256005E+00
  38.0000   0.83967931E-02  -0.80841851E+02   0.13837436E+01   0.72929394E-03   0.66648127E+00   0.44296089E+00
  39.0000   0.85313953E-02  -0.79443361E+02   0.14140589E+01   0.73116924E-03   0.66646003E+00   0.44360350E+00
  40.0000   0.86672524E-02  -0.78012525E+02   0.14443379E+01   0.73883175E-03   0.66643644E+00   0.44297000E+00
  41.0000   0.88015003E-02  -0.76552233E+02   0.14823359E+01   0.74078483E-03   0.66640889E+00   0.44336469E+00
  42.0000   0.89368718E-02  -0.75054164E+02   0.15240700E+01   0.74647041E-03   0.66637735E+00   0.44376722E+00
  43.0000   0.90796520E-02  -0.73500869E+02   0.15733841E+01   0.75089382E-03   0.66634030E+00   0.44389622E+00
  44.0000   0.92074337E-02  -0.71894938E+02   0.16376036E+01   0.75498577E-03   0.66629499E+00   0.44371517E+00
  45.0000   0.93513514E-02  -0.70230447E+02   0.16951709E+01   0.76275176E-03   0.66624495E+00   0.44383162E+00
  46.0000   0.94790517E-02  -0.68500756E+02   0.17589465E+01   0.76678803E-03   0.66618605E+00   0.44328013E+00
  47.0000   0.96292351E-02  -0.66713412E+02   0.18081431E+01   0.77011346E-03   0.66612291E+00   0.44500192E+00
  48.0000   0.97644439E-02  -0.64886691E+02   0.18340043E+01   0.77961362E-03   0.66605852E+00   0.44352468E+00
  49.0000   0.99055651E-02  -0.63039744E+02   0.18572321E+01   0.78203685E-03   0.66598686E+00   0.44433543E+00
  50.0000   0.10047060E-01  -0.61171467E+02   0.18783733E+01   0.79126853E-03   0.66590647E+00   0.44371291E+00
  51.0000   0.10170489E-01  -0.59286339E+02   0.18969411E+01   0.79424177E-03   0.66581633E+00   0.44435974E+00
  52.0000   0.10320311E-01  -0.57378922E+02   0.19082400E+01   0.80426717E-03   0.66571747E+00   0.44338121E+00
  53.0000   0.10458205E-01  -0.55465111E+02   0.19174204E+01   0.80702587E-03   0.66560627E+00   0.44457124E+00
  54.0000   0.10595927E-01  -0.53537331E+02   0.19213985E+01   0.81073762E-03   0.66548278E+00   0.44513572E+00
  55.0000   0.10720966E-01  -0.51622203E+02   0.19021261E+01   0.81726791E-03   0.66535906E+00   0.44471940E+00
  56.0000   0.10850448E-01  -0.49730983E+02   0.18812263E+01   0.82217478E-03   0.66522176E+00   0.44437351E+00
  57.0000   0.10980777E-01  -0.47879129E+02   0.18283415E+01   0.82705989E-03   0.66509701E+00   0.44480454E+00
  58.0000   0.11116716E-01  -0.46083443E+02   0.17606187E+01   0.83202605E-03   0.66497723E+00   0.44479031E+00
  59.0000   0.11233916E-01  -0.44359765E+02   0.16775843E+01   0.83615487E-03   0.66486777E+00   0.44479113E+00
  60.0000   0.11346681E-01  -0.42729948E+02   0.15773197E+01   0.84067850E-03   0.66478081E+00   0.44417460E+00
  61.0000   0.11453463E-01  -0.41201642E+02   0.14681628E+01   0.84258099E-03   0.66471467E+00   0.44385915E+00
  62.0000   0.11566608E-01  -0.39789073E+02   0.13630291E+01   0.84530160E-03   0.66465868E+00   0.44385561E+00
  63.0000   0.11673036E-01  -0.38481891E+02   0.12595736E+01   0.84520320E-03   0.66461778E+00   0.44487850E+00
  64.0000   0.11767479E-01  -0.37270367E+02   0.11586320E+01   0.84872893E-03   0.66459241E+00   0.44426969E+00
  65.0000   0.11858674E-01  -0.36159807E+02   0.10686390E+01   0.84739637E-03   0.66457036E+00   0.44446728E+00
  66.0000   0.11952885E-01  -0.35137801E+02   0.98583936E+00   0.84702907E-03   0.66455527E+00   0.44455427E+00
  67.0000   0.12038250E-01  -0.34182900E+02   0.91519159E+00   0.84783502E-03   0.66453250E+00   0.44408193E+00
  68.0000   0.12118806E-01  -0.33297287E+02   0.85334426E+00   0.84584561E-03   0.66450642E+00   0.44409212E+00
  69.0000   0.12190194E-01  -0.32480057E+02   0.79401507E+00   0.84389871E-03   0.66449170E+00   0.44439602E+00
  70.0000   0.12284089E-01  -0.31709609E+02   0.74253660E+00   0.84370256E-03   0.66447083E+00   0.44436323E+00
  71.0000   0.12355941E-01  -0.30992161E+02   0.70017668E+00   0.84019985E-03   0.66443699E+00   0.44494950E+00
  72.0000   0.12421960E-01  -0.30307616E+02   0.65784322E+00   0.83848524E-03   0.66441401E+00   0.44444440E+00
  73.0000   0.12490950E-01  -0.29669218E+02   0.62356447E+00   0.83692888E-03   0.66437614E+00   0.44428668E+00
  74.0000   0.12559982E-01  -0.29062040E+02   0.59136904E+00   0.83477100E-03   0.66434055E+00   0.44428660E+00
  75.0000   0.12634327E-01  -0.28486212E+02   0.56176895E+00   0.83385669E-03   0.66430442E+00   0.44410569E+00
  76.0000   0.12707049E-01  -0.27939763E+02   0.53446997E+00   0.83231738E-03   0.66426777E+00   0.44424014E+00
  77.0000   0.12763585E-01  -0.27418790E+02   0.50971332E+00   0.82754972E-03   0.66422851E+00   0.44451445E+00
  78.0000   0.12838800E-01  -0.26917693E+02   0.48725379E+00   0.82683047E-03   0.66418634E+00   0.44458768E+00
  79.0000   0.12887178E-01  -0.26444474E+02   0.46711052E+00   0.82378482E-03   0.66413913E+00   0.44437379E+00
  80.0000   0.12939578E-01  -0.25985644E+02   0.44678697E+00   0.81764690E-03   0.66409937E+00   0.44474770E+00
  81.0000   0.13007087E-01  -0.25549515E+02   0.42859957E+00   0.81592623E-03   0.66405508E+00   0.44486525E+00
  82.0000   0.13061376E-01  -0.25128566E+02   0.41157948E+00   0.81230445E-03   0.66401029E+00   0.44510344E+00
  83.0000   0.13124224E-01  -0.24724816E+02   0.39612447E+00   0.81186906E-03   0.66396075E+00   0.44472268E+00
  84.0000   0.13179691E-01  -0.24335087E+02   0.38170835E+00   0.80972056E-03   0.66391069E+00   0.44413264E+00
  85.0000   0.13231554E-01  -0.23959933E+02   0.36695933E+00   0.80459489E-03   0.66386803E+00   0.44475997E+00
  86.0000   0.13286443E-01  -0.23598283E+02   0.35448309E+00   0.80318730E-03   0.66381424E+00   0.44429260E+00
  87.0000   0.13329777E-01  -0.23249308E+02   0.34383619E+00   0.79984511E-03   0.66374930E+00   0.44404858E+00
  88.0000   0.13379176E-01  -0.22912003E+02   0.33202765E+00   0.79675709E-03   0.66369950E+00   0.44453831E+00
  89.0000   0.13438632E-01  -0.22586367E+02   0.32079202E+00   0.79347787E-03   0.66364960E+00   0.44480086E+00
  90.0000   0.13489538E-01  -0.22271104E+02   0.31134476E+00   0.79084510E-03   0.66358621E+00   0.44413168E+00
  91.0000   0.13528035E-01  -0.21964476E+02   0.30108452E+00   0.78787920E-03   0.66353646E+00   0.44401658E+00
  92.0000   0.13574605E-01  -0.21667875E+02   0.29124075E+00   0.78499730E-03   0.66348596E+00   0.44391436E+00
  93.0000   0.13626079E-01  -0.21381161E+02   0.28287993E+00   0.77972758E-03   0.66342602E+00   0.44492945E+00
  94.0000   0.13662854E-01  -0.21100637E+02   0.27486270E+00   0.77801895E-03   0.66336351E+00   0.44409099E+00
  95.0000   0.13710983E-01  -0.20828910E+02   0.26693746E+00   0.77301574E-03   0.66330403E+00   0.44531210E+00
  96.0000   0.13776887E-01  -0.20566396E+02   0.26021062E+00   0.77289138E-03   0.66323387E+00   0.44507829E+00
  97.0000   0.13798181E-01  -0.20309718E+02   0.25237500E+00   0.76889178E-03   0.66318107E+00   0.44425401E+00
  98.0000   0.13846360E-01  -0.20060874E+02   0.24573638E+00   0.76430528E-03   0.66311632E+00   0.44452313E+00
  99.0000   0.13896084E-01  -0.19818405E+02   0.23924638E+00   0.76199017E-03   0.66305291E+00   0.44478034E+00
 100.0000   0.13926264E-01  -0.19583021E+02   0.23280311E+00   0.75870643E-03   0.66299290E+00   0.44457552E+00
 101.0000   0.13972841E-01  -0.19352121E+02   0.22705086E+00   0.75642025E-03   0.66292297E+00   0.44434715E+00
 102.0000   0.14010641E-01  -0.19130139E+02   0.22122707E+00   0.75279305E-03   0.66286124E+00   0.44465096E+00
 103.0000   0.14045499E-01  -0.18912876E+02   0.21575365E+00   0.74946407E-03   0.66279438E+00   0.44452796E+00
 104.0000   0.14084962E-01  -0.18699983E+02   0.21083280E+00   0.74743966E-03   0.66272118E+00   0.44386300E+00
 105.0000   0.14123768E-01  -0.18489835E+02   0.20517788E+00   0.74486892E-03   0.66266370E+00   0.44433391E+00
 106.0000   0.14168577E-01  -0.18286436E+02   0.19997584E+00   0.73918934E-03   0.66260208E+00   0.44508394E+00
 107.0000   0.14201318E-01  -0.18092856E+02   0.19577923E+00   0.73785740E-03   0.66252533E+00   0.44471063E+00
 108.0000   0.14245835E-01  -0.17897047E+02   0.19150095E+00   0.73409133E-03   0.66244898E+00   0.44508205E+00
 109.0000   0.14269318E-01  -0.17706541E+02   0.18697573E+00   0.73018363E-03   0.66238285E+00   0.44442343E+00
