 #written on 18Sep2024 at 07:58:43 
 #----------------------------------------------- MONTECARLO ---------------------------------------------------#
 # Temp      Magnetization     Energy_ave          C_M              Sus              U_E              U_M       #
 #--------------------------------------------------------------------------------------------------------------#
 350.0000   0.50982669E+00  -0.24725136E+03   0.21098241E+01   0.22143108E-02   0.66450120E+00   0.66514467E+00
 351.0000   0.50651765E+00  -0.24520034E+03   0.21169429E+01   0.22646206E-02   0.66444549E+00   0.66508580E+00
 352.0000   0.50307982E+00  -0.24307956E+03   0.21296164E+01   0.23162001E-02   0.66437986E+00   0.66502315E+00
 353.0000   0.49953783E+00  -0.24093080E+03   0.21351809E+01   0.23644337E-02   0.66431979E+00   0.66496050E+00
 354.0000   0.49601193E+00  -0.23880016E+03   0.21471723E+01   0.24266509E-02   0.66425141E+00   0.66488668E+00
 355.0000   0.49241249E+00  -0.23664114E+03   0.21619493E+01   0.24882583E-02   0.66417630E+00   0.66480973E+00
 356.0000   0.48876576E+00  -0.23448824E+03   0.21585261E+01   0.25323264E-02   0.66412027E+00   0.66474390E+00
 357.0000   0.48508779E+00  -0.23231395E+03   0.21681400E+01   0.25950088E-02   0.66404602E+00   0.66466120E+00
 358.0000   0.48137982E+00  -0.23014789E+03   0.21840289E+01   0.26600613E-02   0.66396203E+00   0.66457405E+00
 359.0000   0.47756024E+00  -0.22794130E+03   0.21973978E+01   0.27395393E-02   0.66387771E+00   0.66447186E+00
 360.0000   0.47369318E+00  -0.22572692E+03   0.22056270E+01   0.28076007E-02   0.66379620E+00   0.66437451E+00
 361.0000   0.46975408E+00  -0.22348945E+03   0.22100888E+01   0.28703425E-02   0.66371651E+00   0.66427850E+00
 362.0000   0.46586904E+00  -0.22129645E+03   0.22252996E+01   0.29521435E-02   0.66362113E+00   0.66416386E+00
 363.0000   0.46183885E+00  -0.21905403E+03   0.22379256E+01   0.30345172E-02   0.66352440E+00   0.66404350E+00
 364.0000   0.45786358E+00  -0.21684347E+03   0.22451682E+01   0.31077817E-02   0.66343159E+00   0.66392672E+00
 365.0000   0.45361818E+00  -0.21453997E+03   0.22600870E+01   0.32119682E-02   0.66332168E+00   0.66377516E+00
 366.0000   0.44949404E+00  -0.21231071E+03   0.22683353E+01   0.32945064E-02   0.66322187E+00   0.66364080E+00
 367.0000   0.44523214E+00  -0.21002422E+03   0.22802267E+01   0.33946592E-02   0.66310837E+00   0.66348192E+00
 368.0000   0.44088167E+00  -0.20771709E+03   0.23002427E+01   0.35076606E-02   0.66297700E+00   0.66330329E+00
 369.0000   0.43654561E+00  -0.20544228E+03   0.23003296E+01   0.35970318E-02   0.66287517E+00   0.66314184E+00
 370.0000   0.43199959E+00  -0.20309898E+03   0.23155998E+01   0.37162080E-02   0.66274084E+00   0.66294133E+00
 371.0000   0.42753746E+00  -0.20080755E+03   0.23229169E+01   0.38268236E-02   0.66261711E+00   0.66274319E+00
 372.0000   0.42284440E+00  -0.19844714E+03   0.23468668E+01   0.39655082E-02   0.66245710E+00   0.66250309E+00
 373.0000   0.41820142E+00  -0.19613479E+03   0.23477656E+01   0.40847048E-02   0.66233308E+00   0.66227520E+00
 374.0000   0.41339875E+00  -0.19376773E+03   0.23591442E+01   0.42199408E-02   0.66218172E+00   0.66201671E+00
 375.0000   0.40866873E+00  -0.19146494E+03   0.23799744E+01   0.43799972E-02   0.66200859E+00   0.66171987E+00
 376.0000   0.40358365E+00  -0.18901894E+03   0.23905013E+01   0.45451571E-02   0.66184112E+00   0.66139563E+00
 377.0000   0.39857801E+00  -0.18665201E+03   0.23952834E+01   0.46906901E-02   0.66168229E+00   0.66108332E+00
 378.0000   0.39347069E+00  -0.18426445E+03   0.24076409E+01   0.48655341E-02   0.66149942E+00   0.66071521E+00
 379.0000   0.38819878E+00  -0.18185255E+03   0.24229686E+01   0.50692566E-02   0.66130423E+00   0.66029556E+00
 380.0000   0.38285230E+00  -0.17942700E+03   0.24237369E+01   0.52412472E-02   0.66112653E+00   0.65988634E+00
 381.0000   0.37731704E+00  -0.17696841E+03   0.24386867E+01   0.54547084E-02   0.66090667E+00   0.65939469E+00
 382.0000   0.37164722E+00  -0.17448347E+03   0.24537647E+01   0.56997396E-02   0.66067499E+00   0.65883376E+00
 383.0000   0.36608872E+00  -0.17208156E+03   0.24601921E+01   0.59200803E-02   0.66046073E+00   0.65827562E+00
 384.0000   0.36007682E+00  -0.16955526E+03   0.24751265E+01   0.62166324E-02   0.66020748E+00   0.65757514E+00
 385.0000   0.35432736E+00  -0.16716062E+03   0.24905334E+01   0.64827270E-02   0.65994229E+00   0.65686642E+00
 386.0000   0.34814699E+00  -0.16463057E+03   0.24910418E+01   0.67800307E-02   0.65969797E+00   0.65605825E+00
 387.0000   0.34180613E+00  -0.16210797E+03   0.25032383E+01   0.71318317E-02   0.65941063E+00   0.65511615E+00
 388.0000   0.33549243E+00  -0.15964104E+03   0.25211426E+01   0.75218152E-02   0.65909866E+00   0.65405880E+00
 389.0000   0.32895944E+00  -0.15712059E+03   0.25216197E+01   0.78857432E-02   0.65881014E+00   0.65293948E+00
 390.0000   0.32216454E+00  -0.15460091E+03   0.25344458E+01   0.83322125E-02   0.65847096E+00   0.65159047E+00
 391.0000   0.31519580E+00  -0.15204933E+03   0.25420133E+01   0.87942966E-02   0.65812918E+00   0.65011496E+00
 392.0000   0.30809417E+00  -0.14951682E+03   0.25375866E+01   0.92844925E-02   0.65780407E+00   0.64844854E+00
 393.0000   0.30071431E+00  -0.14695380E+03   0.25399586E+01   0.98466509E-02   0.65743726E+00   0.64649460E+00
 394.0000   0.29295048E+00  -0.14433915E+03   0.25468338E+01   0.10520732E-01   0.65702660E+00   0.64412315E+00
 395.0000   0.28553117E+00  -0.14189779E+03   0.25407303E+01   0.11159516E-01   0.65666663E+00   0.64170897E+00
 396.0000   0.27764487E+00  -0.13938925E+03   0.25292132E+01   0.11885224E-01   0.65629202E+00   0.63880570E+00
 397.0000   0.26934905E+00  -0.13683312E+03   0.25170499E+01   0.12675492E-01   0.65589095E+00   0.63538113E+00
 398.0000   0.26089522E+00  -0.13430208E+03   0.24930872E+01   0.13460927E-01   0.65550589E+00   0.63150572E+00
 399.0000   0.25222731E+00  -0.13180173E+03   0.24540836E+01   0.14259971E-01   0.65518655E+00   0.62717386E+00
 400.0000   0.24373830E+00  -0.12941115E+03   0.24000582E+01   0.14946308E-01   0.65493430E+00   0.62265731E+00
 401.0000   0.23509332E+00  -0.12705645E+03   0.23489586E+01   0.15741840E-01   0.65466707E+00   0.61722735E+00
 402.0000   0.22616896E+00  -0.12471450E+03   0.22682418E+01   0.16388019E-01   0.65453699E+00   0.61146373E+00
 403.0000   0.21722435E+00  -0.12244613E+03   0.21943808E+01   0.17061611E-01   0.65439147E+00   0.60464601E+00
 404.0000   0.20863477E+00  -0.12029550E+03   0.20881956E+01   0.17329181E-01   0.65445441E+00   0.59836607E+00
 405.0000   0.20045972E+00  -0.11832537E+03   0.19974794E+01   0.17691394E-01   0.65448160E+00   0.59121385E+00
 406.0000   0.19209243E+00  -0.11635742E+03   0.18812713E+01   0.17783709E-01   0.65469941E+00   0.58402675E+00
 407.0000   0.18420490E+00  -0.11455028E+03   0.17663491E+01   0.17756203E-01   0.65497915E+00   0.57668635E+00
 408.0000   0.17668062E+00  -0.11285964E+03   0.16716957E+01   0.17820531E-01   0.65517348E+00   0.56826606E+00
 409.0000   0.16925536E+00  -0.11120863E+03   0.15448701E+01   0.17385252E-01   0.65564534E+00   0.56138453E+00
 410.0000   0.16250433E+00  -0.10973783E+03   0.14433049E+01   0.17031834E-01   0.65601972E+00   0.55418234E+00
 411.0000   0.15582655E+00  -0.10831816E+03   0.13414126E+01   0.16624455E-01   0.65644085E+00   0.54642779E+00
 412.0000   0.14990078E+00  -0.10704640E+03   0.12516504E+01   0.16173235E-01   0.65683116E+00   0.53924099E+00
 413.0000   0.14411135E+00  -0.10582686E+03   0.11559642E+01   0.15562387E-01   0.65732326E+00   0.53303267E+00
 414.0000   0.13876974E+00  -0.10470899E+03   0.10763826E+01   0.15027331E-01   0.65773031E+00   0.52640784E+00
 415.0000   0.13406606E+00  -0.10370370E+03   0.10067667E+01   0.14464979E-01   0.65810139E+00   0.52075202E+00
 416.0000   0.12912540E+00  -0.10268112E+03   0.93730087E+00   0.13878669E-01   0.65849517E+00   0.51448344E+00
 417.0000   0.12494189E+00  -0.10179600E+03   0.87449616E+00   0.13283339E-01   0.65888256E+00   0.50995399E+00
 418.0000   0.12095749E+00  -0.10094547E+03   0.82025150E+00   0.12723909E-01   0.65920861E+00   0.50526456E+00
 419.0000   0.11735706E+00  -0.10016482E+03   0.77528413E+00   0.12241872E-01   0.65947599E+00   0.50036595E+00
 420.0000   0.11387978E+00  -0.99422633E+02   0.72746841E+00   0.11670152E-01   0.65979853E+00   0.49750782E+00
 421.0000   0.11052421E+00  -0.98682102E+02   0.68982906E+00   0.11197453E-01   0.66003041E+00   0.49287566E+00
 422.0000   0.10736702E+00  -0.97997884E+02   0.65083702E+00   0.10677841E-01   0.66029855E+00   0.48975062E+00
 423.0000   0.10464161E+00  -0.97365326E+02   0.61891771E+00   0.10261480E-01   0.66050633E+00   0.48630913E+00
 424.0000   0.10192431E+00  -0.96764123E+02   0.59018336E+00   0.98550663E-02   0.66069909E+00   0.48341351E+00
 425.0000   0.99520604E-01  -0.96188375E+02   0.56494827E+00   0.94510193E-02   0.66086532E+00   0.48145955E+00
 426.0000   0.97365235E-01  -0.95657092E+02   0.54488233E+00   0.91413175E-02   0.66098526E+00   0.47817152E+00
 427.0000   0.95070977E-01  -0.95121652E+02   0.52181221E+00   0.87596248E-02   0.66114563E+00   0.47597079E+00
 428.0000   0.92932638E-01  -0.94589159E+02   0.49980194E+00   0.83941938E-02   0.66130272E+00   0.47499785E+00
 429.0000   0.90943601E-01  -0.94099866E+02   0.48114310E+00   0.80749521E-02   0.66143166E+00   0.47310228E+00
 430.0000   0.89053798E-01  -0.93617985E+02   0.46423136E+00   0.78050149E-02   0.66154391E+00   0.47040777E+00
 431.0000   0.87431468E-01  -0.93177833E+02   0.45081065E+00   0.75244329E-02   0.66162689E+00   0.46986237E+00
 432.0000   0.85678115E-01  -0.92721883E+02   0.43540821E+00   0.72669680E-02   0.66173368E+00   0.46775515E+00
 433.0000   0.84190813E-01  -0.92294297E+02   0.42380942E+00   0.70410681E-02   0.66180124E+00   0.46595751E+00
 434.0000   0.82550267E-01  -0.91865791E+02   0.41192194E+00   0.67726202E-02   0.66187672E+00   0.46506680E+00
 435.0000   0.81387511E-01  -0.91482488E+02   0.40061607E+00   0.65986726E-02   0.66194986E+00   0.46415508E+00
 436.0000   0.80053765E-01  -0.91086415E+02   0.39066761E+00   0.63803069E-02   0.66201023E+00   0.46349378E+00
 437.0000   0.78686722E-01  -0.90689277E+02   0.38088777E+00   0.61906293E-02   0.66206733E+00   0.46159275E+00
 438.0000   0.77545664E-01  -0.90331124E+02   0.37277196E+00   0.59969258E-02   0.66211250E+00   0.46162512E+00
 439.0000   0.76403480E-01  -0.89962780E+02   0.36465240E+00   0.58511845E-02   0.66215672E+00   0.45973937E+00
 440.0000   0.75142000E-01  -0.89593033E+02   0.35593140E+00   0.56562734E-02   0.66221052E+00   0.45931194E+00
 441.0000   0.74242447E-01  -0.89248877E+02   0.34949059E+00   0.55019464E-02   0.66223925E+00   0.45913651E+00
 442.0000   0.73017730E-01  -0.88878144E+02   0.34119561E+00   0.53277857E-02   0.66229268E+00   0.45842314E+00
 443.0000   0.72201036E-01  -0.88552495E+02   0.33564057E+00   0.52216570E-02   0.66231381E+00   0.45742870E+00
 444.0000   0.71156187E-01  -0.88219347E+02   0.32974954E+00   0.50668268E-02   0.66234026E+00   0.45691306E+00
 445.0000   0.70284264E-01  -0.87892990E+02   0.32363082E+00   0.49291119E-02   0.66237016E+00   0.45660797E+00
 446.0000   0.69444855E-01  -0.87577014E+02   0.31827133E+00   0.48196756E-02   0.66239457E+00   0.45587642E+00
 447.0000   0.68611017E-01  -0.87253210E+02   0.31359934E+00   0.46890536E-02   0.66240815E+00   0.45558138E+00
 448.0000   0.67729201E-01  -0.86952276E+02   0.30838093E+00   0.45819328E-02   0.66243169E+00   0.45480427E+00
 449.0000   0.66974141E-01  -0.86649217E+02   0.30382731E+00   0.44670307E-02   0.66244747E+00   0.45448608E+00
