 #written on  4Sep2024 at 00:35:28 
 #----------------------------------------------- MONTECARLO ---------------------------------------------------#
 # Temp      Magnetization     Energy_ave          C_M              Sus              U_E              U_M       #
 #--------------------------------------------------------------------------------------------------------------#
 201.0000   0.51984559E-02  -0.83656348E+03   0.12891541E+01   0.57422496E-04   0.66662449E+00   0.43809041E+00
 202.0000   0.52158675E-02  -0.83526291E+03   0.12959627E+01   0.57530531E-04   0.66662371E+00   0.43827769E+00
 203.0000   0.52311889E-02  -0.83397732E+03   0.12973864E+01   0.57571149E-04   0.66662310E+00   0.43824562E+00
 204.0000   0.52466352E-02  -0.83266786E+03   0.13075282E+01   0.57582106E-04   0.66662219E+00   0.43843675E+00
 205.0000   0.52629289E-02  -0.83137101E+03   0.13018110E+01   0.57641334E-04   0.66662181E+00   0.43868880E+00
 206.0000   0.52769709E-02  -0.83006871E+03   0.13143207E+01   0.57448850E-04   0.66662079E+00   0.43930912E+00
 207.0000   0.52929584E-02  -0.82872502E+03   0.13208748E+01   0.57653734E-04   0.66661997E+00   0.43859171E+00
 208.0000   0.53096660E-02  -0.82740657E+03   0.13236811E+01   0.57680972E-04   0.66661926E+00   0.43904397E+00
 209.0000   0.53208267E-02  -0.82605636E+03   0.13359107E+01   0.57783440E-04   0.66661821E+00   0.43885781E+00
 210.0000   0.53347201E-02  -0.82474301E+03   0.13395376E+01   0.57656301E-04   0.66661745E+00   0.43946385E+00
 211.0000   0.53556189E-02  -0.82340177E+03   0.13470934E+01   0.57747027E-04   0.66661654E+00   0.44012471E+00
 212.0000   0.53682929E-02  -0.82206766E+03   0.13545047E+01   0.57775106E-04   0.66661562E+00   0.43967771E+00
 213.0000   0.53877138E-02  -0.82071193E+03   0.13630217E+01   0.57883311E-04   0.66661464E+00   0.44003744E+00
 214.0000   0.53976273E-02  -0.81933651E+03   0.13685869E+01   0.57900985E-04   0.66661376E+00   0.43991575E+00
 215.0000   0.54193886E-02  -0.81796968E+03   0.13707554E+01   0.58002849E-04   0.66661300E+00   0.43963037E+00
 216.0000   0.54299696E-02  -0.81659132E+03   0.13848472E+01   0.57920338E-04   0.66661176E+00   0.44008478E+00
 217.0000   0.54440797E-02  -0.81521400E+03   0.13893562E+01   0.58018415E-04   0.66661088E+00   0.43971770E+00
 218.0000   0.54620906E-02  -0.81379874E+03   0.13906484E+01   0.58057405E-04   0.66661012E+00   0.44045074E+00
 219.0000   0.54761587E-02  -0.81241567E+03   0.14093573E+01   0.58108015E-04   0.66660864E+00   0.44005925E+00
 220.0000   0.54936800E-02  -0.81099633E+03   0.14130261E+01   0.58238287E-04   0.66660775E+00   0.43979252E+00
 221.0000   0.55038574E-02  -0.80956948E+03   0.14194888E+01   0.58046338E-04   0.66660673E+00   0.44086452E+00
 222.0000   0.55239558E-02  -0.80815154E+03   0.14322591E+01   0.58098951E-04   0.66660542E+00   0.44135568E+00
 223.0000   0.55407354E-02  -0.80671853E+03   0.14378041E+01   0.58333588E-04   0.66660441E+00   0.44074409E+00
 224.0000   0.55550739E-02  -0.80528137E+03   0.14532582E+01   0.58272729E-04   0.66660295E+00   0.44126756E+00
 225.0000   0.55692858E-02  -0.80383731E+03   0.14548797E+01   0.58454500E-04   0.66660208E+00   0.44058006E+00
 226.0000   0.55857624E-02  -0.80236583E+03   0.14672042E+01   0.58418343E-04   0.66660071E+00   0.44102754E+00
 227.0000   0.56003361E-02  -0.80088766E+03   0.14769007E+01   0.58442565E-04   0.66659944E+00   0.44137257E+00
 228.0000   0.56149237E-02  -0.79940419E+03   0.14844660E+01   0.58481752E-04   0.66659825E+00   0.44079724E+00
 229.0000   0.56364198E-02  -0.79792754E+03   0.14986555E+01   0.58590348E-04   0.66659673E+00   0.44177756E+00
 230.0000   0.56454545E-02  -0.79640449E+03   0.15103101E+01   0.58578676E-04   0.66659530E+00   0.44121670E+00
 231.0000   0.56641178E-02  -0.79490314E+03   0.15196384E+01   0.58657462E-04   0.66659395E+00   0.44170089E+00
 232.0000   0.56747021E-02  -0.79340798E+03   0.15281629E+01   0.58680907E-04   0.66659264E+00   0.44123950E+00
 233.0000   0.56914339E-02  -0.79186415E+03   0.15304037E+01   0.58800227E-04   0.66659159E+00   0.44127787E+00
 234.0000   0.57055166E-02  -0.79032001E+03   0.15503189E+01   0.58726409E-04   0.66658967E+00   0.44164887E+00
 235.0000   0.57229565E-02  -0.78875743E+03   0.15606957E+01   0.58928527E-04   0.66658817E+00   0.44171477E+00
 236.0000   0.57391429E-02  -0.78716249E+03   0.15760610E+01   0.58913088E-04   0.66658640E+00   0.44213202E+00
 237.0000   0.57542744E-02  -0.78558215E+03   0.15861788E+01   0.59021232E-04   0.66658488E+00   0.44148037E+00
 238.0000   0.57709350E-02  -0.78400625E+03   0.16071014E+01   0.59036415E-04   0.66658277E+00   0.44202462E+00
 239.0000   0.57853352E-02  -0.78237959E+03   0.16241066E+01   0.59056425E-04   0.66658080E+00   0.44207883E+00
 240.0000   0.58046878E-02  -0.78072506E+03   0.16414111E+01   0.59159122E-04   0.66657879E+00   0.44210663E+00
 241.0000   0.58191371E-02  -0.77909508E+03   0.16527533E+01   0.59224694E-04   0.66657707E+00   0.44262701E+00
 242.0000   0.58276838E-02  -0.77744676E+03   0.16640758E+01   0.59170321E-04   0.66657532E+00   0.44212380E+00
 243.0000   0.58494536E-02  -0.77579076E+03   0.16824473E+01   0.59161251E-04   0.66657316E+00   0.44355391E+00
 244.0000   0.58638193E-02  -0.77407907E+03   0.16984898E+01   0.59337662E-04   0.66657107E+00   0.44261088E+00
 245.0000   0.58817176E-02  -0.77239595E+03   0.17185328E+01   0.59518767E-04   0.66656873E+00   0.44254373E+00
 246.0000   0.58938832E-02  -0.77062158E+03   0.17433804E+01   0.59447167E-04   0.66656603E+00   0.44246407E+00
 247.0000   0.59141687E-02  -0.76890488E+03   0.17612734E+01   0.59496897E-04   0.66656371E+00   0.44309059E+00
 248.0000   0.59222246E-02  -0.76713070E+03   0.17709066E+01   0.59724582E-04   0.66656182E+00   0.44186270E+00
 249.0000   0.59394210E-02  -0.76533964E+03   0.17976990E+01   0.59624341E-04   0.66655888E+00   0.44271398E+00
 250.0000   0.59597487E-02  -0.76355169E+03   0.18120128E+01   0.59706509E-04   0.66655664E+00   0.44305604E+00
 251.0000   0.59770622E-02  -0.76169945E+03   0.18398300E+01   0.59748489E-04   0.66655351E+00   0.44363054E+00
 252.0000   0.59893159E-02  -0.75987048E+03   0.18588369E+01   0.59816959E-04   0.66655087E+00   0.44343350E+00
 253.0000   0.60078363E-02  -0.75798879E+03   0.18907494E+01   0.60053695E-04   0.66654737E+00   0.44281424E+00
 254.0000   0.60220444E-02  -0.75606502E+03   0.19181838E+01   0.60001930E-04   0.66654407E+00   0.44324494E+00
 255.0000   0.60443596E-02  -0.75415274E+03   0.19506519E+01   0.60198046E-04   0.66654036E+00   0.44382337E+00
 256.0000   0.60527350E-02  -0.75223423E+03   0.19793159E+01   0.60116510E-04   0.66653686E+00   0.44351478E+00
 257.0000   0.60701537E-02  -0.75020966E+03   0.20155850E+01   0.60162275E-04   0.66653272E+00   0.44378828E+00
 258.0000   0.60869290E-02  -0.74818993E+03   0.20478467E+01   0.60284909E-04   0.66652878E+00   0.44390066E+00
 259.0000   0.61075210E-02  -0.74609441E+03   0.20940528E+01   0.60476309E-04   0.66652378E+00   0.44380732E+00
 260.0000   0.61171577E-02  -0.74401601E+03   0.21384749E+01   0.60455597E-04   0.66651880E+00   0.44378613E+00
 261.0000   0.61382787E-02  -0.74187333E+03   0.21641708E+01   0.60696060E-04   0.66651500E+00   0.44308108E+00
 262.0000   0.61501256E-02  -0.73971096E+03   0.21974151E+01   0.60604207E-04   0.66651056E+00   0.44401351E+00
 263.0000   0.61703341E-02  -0.73751804E+03   0.22256403E+01   0.60783780E-04   0.66650638E+00   0.44358547E+00
 264.0000   0.61865236E-02  -0.73523452E+03   0.22432213E+01   0.60984197E-04   0.66650285E+00   0.44317084E+00
 265.0000   0.62041113E-02  -0.73300229E+03   0.22389277E+01   0.60747642E-04   0.66650088E+00   0.44446430E+00
 266.0000   0.62157351E-02  -0.73078981E+03   0.22568862E+01   0.61138607E-04   0.66649722E+00   0.44333752E+00
 267.0000   0.62400591E-02  -0.72851773E+03   0.22400899E+01   0.61051861E-04   0.66649610E+00   0.44460918E+00
 268.0000   0.62549787E-02  -0.72630448E+03   0.22076079E+01   0.61231502E-04   0.66649624E+00   0.44434022E+00
 269.0000   0.62707733E-02  -0.72408589E+03   0.21766314E+01   0.61199817E-04   0.66649630E+00   0.44453052E+00
 270.0000   0.62898870E-02  -0.72198063E+03   0.21210371E+01   0.61365715E-04   0.66649840E+00   0.44452139E+00
 271.0000   0.63035808E-02  -0.71988077E+03   0.20668272E+01   0.61549174E-04   0.66650049E+00   0.44396761E+00
 272.0000   0.63211844E-02  -0.71783508E+03   0.19998223E+01   0.61648143E-04   0.66650374E+00   0.44410084E+00
 273.0000   0.63365138E-02  -0.71584043E+03   0.19312326E+01   0.61667826E-04   0.66650727E+00   0.44419896E+00
 274.0000   0.63489812E-02  -0.71393235E+03   0.18645332E+01   0.61556121E-04   0.66651083E+00   0.44465862E+00
 275.0000   0.63696674E-02  -0.71210840E+03   0.18100960E+01   0.61854581E-04   0.66651348E+00   0.44436854E+00
 276.0000   0.63842573E-02  -0.71032371E+03   0.17591994E+01   0.61805421E-04   0.66651595E+00   0.44468887E+00
 277.0000   0.63951049E-02  -0.70861608E+03   0.16959763E+01   0.62013813E-04   0.66651962E+00   0.44385395E+00
 278.0000   0.64093774E-02  -0.70693663E+03   0.16498926E+01   0.62023154E-04   0.66652192E+00   0.44366146E+00
 279.0000   0.64215752E-02  -0.70531735E+03   0.16028030E+01   0.62004673E-04   0.66652439E+00   0.44392141E+00
 280.0000   0.64393092E-02  -0.70371956E+03   0.15719626E+01   0.62025692E-04   0.66652550E+00   0.44445400E+00
 281.0000   0.64520837E-02  -0.70216408E+03   0.15316617E+01   0.61972725E-04   0.66652754E+00   0.44447202E+00
 282.0000   0.64625395E-02  -0.70067969E+03   0.15006928E+01   0.62006586E-04   0.66652881E+00   0.44489002E+00
 283.0000   0.64757121E-02  -0.69914639E+03   0.14801405E+01   0.62206497E-04   0.66652915E+00   0.44416890E+00
 284.0000   0.64998990E-02  -0.69769525E+03   0.14574964E+01   0.62410151E-04   0.66652973E+00   0.44397352E+00
 285.0000   0.65139173E-02  -0.69624049E+03   0.14345139E+01   0.62439412E-04   0.66653038E+00   0.44431843E+00
 286.0000   0.65226137E-02  -0.69481205E+03   0.14150080E+01   0.62412216E-04   0.66653073E+00   0.44411289E+00
 287.0000   0.65366501E-02  -0.69342442E+03   0.14008316E+01   0.62317693E-04   0.66653062E+00   0.44466203E+00
 288.0000   0.65512166E-02  -0.69206240E+03   0.13759018E+01   0.62343807E-04   0.66653158E+00   0.44493861E+00
 289.0000   0.65647050E-02  -0.69065107E+03   0.13619143E+01   0.62463196E-04   0.66653148E+00   0.44442085E+00
 290.0000   0.65770782E-02  -0.68927604E+03   0.13546568E+01   0.62541665E-04   0.66653073E+00   0.44438503E+00
 291.0000   0.65863940E-02  -0.68794670E+03   0.13326984E+01   0.62464486E-04   0.66653149E+00   0.44455499E+00
 292.0000   0.66082264E-02  -0.68663500E+03   0.13219057E+01   0.62613445E-04   0.66653115E+00   0.44459226E+00
 293.0000   0.66201767E-02  -0.68529824E+03   0.13120924E+01   0.62386892E-04   0.66653071E+00   0.44555849E+00
 294.0000   0.66322060E-02  -0.68401984E+03   0.13030735E+01   0.62662333E-04   0.66653021E+00   0.44435633E+00
 295.0000   0.66478918E-02  -0.68270347E+03   0.12961276E+01   0.62784125E-04   0.66652949E+00   0.44457842E+00
 296.0000   0.66544461E-02  -0.68141768E+03   0.12837090E+01   0.62656556E-04   0.66652936E+00   0.44449744E+00
 297.0000   0.66688916E-02  -0.68013808E+03   0.12724895E+01   0.62819520E-04   0.66652913E+00   0.44390633E+00
 298.0000   0.66862153E-02  -0.67886377E+03   0.12600649E+01   0.62816818E-04   0.66652904E+00   0.44444073E+00
 299.0000   0.66923790E-02  -0.67760314E+03   0.12521525E+01   0.62729985E-04   0.66652848E+00   0.44429239E+00
 300.0000   0.67090370E-02  -0.67635050E+03   0.12448098E+01   0.62949704E-04   0.66652785E+00   0.44393294E+00
