 #written on  5Sep2024 at 03:59:44 
 #----------------------------------------------- MONTECARLO ---------------------------------------------------#
 # Temp      Magnetization     Energy_ave          C_M              Sus              U_E              U_M       #
 #--------------------------------------------------------------------------------------------------------------#
  11.0000   0.21754599E-01  -0.94536817E+02   0.10630442E+01   0.18213239E-01   0.66665793E+00   0.41795279E+00
  12.0000   0.22733484E-01  -0.93468587E+02   0.10737144E+01   0.18024308E-01   0.66665593E+00   0.42094881E+00
  13.0000   0.23771359E-01  -0.92395502E+02   0.10809968E+01   0.18182649E-01   0.66665368E+00   0.42159014E+00
  14.0000   0.24726262E-01  -0.91309300E+02   0.10915561E+01   0.18214812E-01   0.66665110E+00   0.42283967E+00
  15.0000   0.25574130E-01  -0.90213907E+02   0.11057678E+01   0.18203991E-01   0.66664812E+00   0.42359923E+00
  16.0000   0.26450292E-01  -0.89112919E+02   0.11067651E+01   0.18154909E-01   0.66664502E+00   0.42449387E+00
  17.0000   0.27402183E-01  -0.87998121E+02   0.11166941E+01   0.18426793E-01   0.66664138E+00   0.42307440E+00
  18.0000   0.28053932E-01  -0.86873378E+02   0.11331296E+01   0.18190786E-01   0.66663715E+00   0.42279538E+00
  19.0000   0.29009140E-01  -0.85735098E+02   0.11438601E+01   0.18306606E-01   0.66663258E+00   0.42624159E+00
  20.0000   0.29841273E-01  -0.84582780E+02   0.11574945E+01   0.18446041E-01   0.66662740E+00   0.42547972E+00
  21.0000   0.30621201E-01  -0.83420430E+02   0.11740540E+01   0.18373634E-01   0.66662153E+00   0.42684887E+00
  22.0000   0.31463598E-01  -0.82238259E+02   0.11941715E+01   0.18605059E-01   0.66661482E+00   0.42702853E+00
  23.0000   0.32285690E-01  -0.81036310E+02   0.12099684E+01   0.18639896E-01   0.66660754E+00   0.42886941E+00
  24.0000   0.32972463E-01  -0.79819572E+02   0.12255445E+01   0.18597592E-01   0.66659945E+00   0.42750765E+00
  25.0000   0.33784568E-01  -0.78575747E+02   0.12543213E+01   0.18743690E-01   0.66658965E+00   0.42834145E+00
  26.0000   0.34671928E-01  -0.77306899E+02   0.12844204E+01   0.18964131E-01   0.66657854E+00   0.42905609E+00
  27.0000   0.35352814E-01  -0.76006393E+02   0.13161714E+01   0.18878418E-01   0.66656593E+00   0.43063630E+00
  28.0000   0.36234124E-01  -0.74666488E+02   0.13593095E+01   0.19128032E-01   0.66655073E+00   0.43125352E+00
  29.0000   0.37093451E-01  -0.73284760E+02   0.14080372E+01   0.19279513E-01   0.66653295E+00   0.43114051E+00
  30.0000   0.37996861E-01  -0.71855044E+02   0.14634945E+01   0.19439160E-01   0.66651197E+00   0.43376015E+00
  31.0000   0.38928025E-01  -0.70356792E+02   0.15283011E+01   0.19699081E-01   0.66648677E+00   0.43462185E+00
  32.0000   0.39869329E-01  -0.68791315E+02   0.16041409E+01   0.19922918E-01   0.66645622E+00   0.43639264E+00
  33.0000   0.41003621E-01  -0.67139533E+02   0.16965504E+01   0.20417379E-01   0.66641820E+00   0.43605388E+00
  34.0000   0.42155970E-01  -0.65391078E+02   0.18003918E+01   0.20785823E-01   0.66637163E+00   0.43853361E+00
  35.0000   0.43365546E-01  -0.63541599E+02   0.18889793E+01   0.21375711E-01   0.66631927E+00   0.43893106E+00
  36.0000   0.44614750E-01  -0.61620075E+02   0.19446083E+01   0.21940538E-01   0.66626423E+00   0.44033594E+00
  37.0000   0.45618263E-01  -0.59702609E+02   0.18800161E+01   0.22213516E-01   0.66622870E+00   0.44152845E+00
  38.0000   0.46273492E-01  -0.57902351E+02   0.17241553E+01   0.22119183E-01   0.66621599E+00   0.44272885E+00
  39.0000   0.46553232E-01  -0.56255225E+02   0.15647073E+01   0.21789622E-01   0.66621026E+00   0.44389247E+00
  40.0000   0.46478029E-01  -0.54757581E+02   0.14236645E+01   0.21154022E-01   0.66620564E+00   0.44423703E+00
  41.0000   0.46258838E-01  -0.53382327E+02   0.13274417E+01   0.20411946E-01   0.66619158E+00   0.44502204E+00
  42.0000   0.45804844E-01  -0.52105830E+02   0.12398602E+01   0.19539923E-01   0.66617799E+00   0.44419535E+00
  43.0000   0.45220813E-01  -0.50899111E+02   0.11751724E+01   0.18503418E-01   0.66615793E+00   0.44671079E+00
  44.0000   0.44816301E-01  -0.49756406E+02   0.11146036E+01   0.17794143E-01   0.66613801E+00   0.44528072E+00
  45.0000   0.44150967E-01  -0.48665854E+02   0.10662265E+01   0.16877908E-01   0.66611377E+00   0.44566931E+00
  46.0000   0.43526783E-01  -0.47626127E+02   0.10200646E+01   0.16043615E-01   0.66608954E+00   0.44555029E+00
  47.0000   0.42998750E-01  -0.46623015E+02   0.98034082E+00   0.15395431E-01   0.66606242E+00   0.44439358E+00
  48.0000   0.42441374E-01  -0.45662942E+02   0.94360039E+00   0.14652162E-01   0.66603435E+00   0.44479071E+00
  49.0000   0.41782583E-01  -0.44739793E+02   0.90661908E+00   0.13880831E-01   0.66600725E+00   0.44551517E+00
  50.0000   0.41244266E-01  -0.43849749E+02   0.87403430E+00   0.13265824E-01   0.66597750E+00   0.44544503E+00
  51.0000   0.40690146E-01  -0.42992517E+02   0.83969211E+00   0.12675970E-01   0.66595020E+00   0.44500848E+00
  52.0000   0.40144318E-01  -0.42166484E+02   0.81310824E+00   0.12125943E-01   0.66591685E+00   0.44467681E+00
  53.0000   0.39659179E-01  -0.41372047E+02   0.78588184E+00   0.11582249E-01   0.66588477E+00   0.44540123E+00
  54.0000   0.39146851E-01  -0.40599309E+02   0.75761722E+00   0.11043915E-01   0.66585399E+00   0.44579142E+00
  55.0000   0.38690256E-01  -0.39857490E+02   0.73219790E+00   0.10616313E-01   0.66582140E+00   0.44553110E+00
  56.0000   0.38215187E-01  -0.39139518E+02   0.70679557E+00   0.10200210E-01   0.66578956E+00   0.44456495E+00
  57.0000   0.37764520E-01  -0.38440757E+02   0.68400219E+00   0.97808525E-02   0.66575498E+00   0.44489255E+00
  58.0000   0.37362711E-01  -0.37771639E+02   0.66131973E+00   0.93825527E-02   0.66572140E+00   0.44547128E+00
  59.0000   0.36885222E-01  -0.37119520E+02   0.64148834E+00   0.89944332E-02   0.66568419E+00   0.44538651E+00
  60.0000   0.36479253E-01  -0.36487265E+02   0.62089264E+00   0.86679111E-02   0.66564910E+00   0.44497371E+00
  61.0000   0.36092480E-01  -0.35878170E+02   0.60225878E+00   0.83485128E-02   0.66561147E+00   0.44486907E+00
  62.0000   0.35756069E-01  -0.35287179E+02   0.58357991E+00   0.80402840E-02   0.66557472E+00   0.44548439E+00
  63.0000   0.35373544E-01  -0.34710212E+02   0.56505297E+00   0.77646048E-02   0.66553851E+00   0.44506223E+00
  64.0000   0.35035221E-01  -0.34156896E+02   0.54909572E+00   0.74786967E-02   0.66549830E+00   0.44500236E+00
  65.0000   0.34749460E-01  -0.33614767E+02   0.53254021E+00   0.72497010E-02   0.66545989E+00   0.44542648E+00
  66.0000   0.34403740E-01  -0.33091602E+02   0.51798648E+00   0.69920494E-02   0.66541802E+00   0.44517612E+00
  67.0000   0.34099037E-01  -0.32580698E+02   0.50311467E+00   0.67798256E-02   0.66537732E+00   0.44486144E+00
  68.0000   0.33781584E-01  -0.32087025E+02   0.48782328E+00   0.65576322E-02   0.66533908E+00   0.44497409E+00
  69.0000   0.33542491E-01  -0.31607488E+02   0.47406407E+00   0.63684550E-02   0.66529765E+00   0.44523858E+00
  70.0000   0.33221300E-01  -0.31140572E+02   0.46052720E+00   0.61546672E-02   0.66525674E+00   0.44495606E+00
  71.0000   0.32991043E-01  -0.30685406E+02   0.44788744E+00   0.59897796E-02   0.66521405E+00   0.44522599E+00
  72.0000   0.32735572E-01  -0.30244335E+02   0.43667006E+00   0.58174285E-02   0.66516771E+00   0.44476106E+00
  73.0000   0.32517640E-01  -0.29815939E+02   0.42381096E+00   0.56503688E-02   0.66512774E+00   0.44532508E+00
  74.0000   0.32229576E-01  -0.29396213E+02   0.41304698E+00   0.54954259E-02   0.66508097E+00   0.44446177E+00
  75.0000   0.32001414E-01  -0.28987994E+02   0.40102935E+00   0.53369479E-02   0.66504044E+00   0.44474173E+00
  76.0000   0.31752855E-01  -0.28591876E+02   0.39007448E+00   0.51918859E-02   0.66499723E+00   0.44454220E+00
  77.0000   0.31571559E-01  -0.28205775E+02   0.38131601E+00   0.50556848E-02   0.66494544E+00   0.44505864E+00
  78.0000   0.31358837E-01  -0.27830803E+02   0.37254214E+00   0.49308546E-02   0.66489447E+00   0.44502485E+00
  79.0000   0.31160295E-01  -0.27465142E+02   0.36320119E+00   0.48071374E-02   0.66484659E+00   0.44471773E+00
  80.0000   0.30987325E-01  -0.27105935E+02   0.35260144E+00   0.46952660E-02   0.66480691E+00   0.44476132E+00
  81.0000   0.30800291E-01  -0.26755994E+02   0.34503208E+00   0.45740050E-02   0.66475150E+00   0.44495903E+00
  82.0000   0.30599788E-01  -0.26415950E+02   0.33557267E+00   0.44704554E-02   0.66470835E+00   0.44414523E+00
  83.0000   0.30417506E-01  -0.26083896E+02   0.32831846E+00   0.43592982E-02   0.66465328E+00   0.44480916E+00
  84.0000   0.30263070E-01  -0.25761460E+02   0.32015352E+00   0.42533384E-02   0.66460571E+00   0.44517043E+00
  85.0000   0.30104870E-01  -0.25444956E+02   0.31221496E+00   0.41586657E-02   0.66455756E+00   0.44538865E+00
  86.0000   0.29920351E-01  -0.25136878E+02   0.30529634E+00   0.40647701E-02   0.66450318E+00   0.44476715E+00
  87.0000   0.29774449E-01  -0.24831953E+02   0.29821840E+00   0.39928435E-02   0.66445057E+00   0.44423366E+00
  88.0000   0.29622920E-01  -0.24540410E+02   0.29146910E+00   0.39076933E-02   0.66439779E+00   0.44434578E+00
  89.0000   0.29476918E-01  -0.24250355E+02   0.28463539E+00   0.38176725E-02   0.66434594E+00   0.44503845E+00
  90.0000   0.29344508E-01  -0.23970326E+02   0.27860112E+00   0.37411830E-02   0.66428927E+00   0.44509980E+00
