 #written on  8Aug2024 at 16:12:33 
 #----------------------------------------------- MONTECARLO ---------------------------------------------------#
 # Temp      Magnetization     Energy_ave          C_M              Sus              U_E              U_M       #
 #--------------------------------------------------------------------------------------------------------------#
 206.0000   0.10701701E-01  -0.25696123E+03   0.17415817E+01   0.20282076E-03   0.66592805E+00   0.43910933E+00
 207.0000   0.10739203E-01  -0.25519320E+03   0.17557539E+01   0.20346457E-03   0.66590434E+00   0.43883185E+00
 208.0000   0.10778818E-01  -0.25345519E+03   0.17675229E+01   0.20349631E-03   0.66588111E+00   0.43967993E+00
 209.0000   0.10807602E-01  -0.25166889E+03   0.17793405E+01   0.20369908E-03   0.66585693E+00   0.43987026E+00
 210.0000   0.10838781E-01  -0.24988291E+03   0.17853193E+01   0.20348124E-03   0.66583469E+00   0.44013118E+00
 211.0000   0.10882924E-01  -0.24808736E+03   0.18009122E+01   0.20421860E-03   0.66580713E+00   0.43989642E+00
 212.0000   0.10913280E-01  -0.24629479E+03   0.18087369E+01   0.20454481E-03   0.66578251E+00   0.44038044E+00
 213.0000   0.10958854E-01  -0.24447549E+03   0.18274017E+01   0.20541064E-03   0.66575152E+00   0.44006334E+00
 214.0000   0.10985210E-01  -0.24262597E+03   0.18353575E+01   0.20485348E-03   0.66572477E+00   0.44087844E+00
 215.0000   0.11026790E-01  -0.24078647E+03   0.18543132E+01   0.20551975E-03   0.66569147E+00   0.44031054E+00
 216.0000   0.11068956E-01  -0.23894427E+03   0.18704773E+01   0.20570343E-03   0.66565854E+00   0.44091673E+00
 217.0000   0.11096267E-01  -0.23706830E+03   0.18750469E+01   0.20555853E-03   0.66563035E+00   0.44149974E+00
 218.0000   0.11133526E-01  -0.23518927E+03   0.18931636E+01   0.20620634E-03   0.66559391E+00   0.44100490E+00
 219.0000   0.11166861E-01  -0.23329281E+03   0.19021179E+01   0.20618068E-03   0.66556117E+00   0.44156182E+00
 220.0000   0.11206509E-01  -0.23139497E+03   0.19112369E+01   0.20700128E-03   0.66552744E+00   0.44135255E+00
 221.0000   0.11247698E-01  -0.22945625E+03   0.19332931E+01   0.20743009E-03   0.66548417E+00   0.44085205E+00
 222.0000   0.11270935E-01  -0.22751177E+03   0.19481970E+01   0.20656791E-03   0.66544373E+00   0.44284109E+00
 223.0000   0.11312033E-01  -0.22555666E+03   0.19597317E+01   0.20704969E-03   0.66540395E+00   0.44258012E+00
 224.0000   0.11350686E-01  -0.22358765E+03   0.19845328E+01   0.20769622E-03   0.66535359E+00   0.44205985E+00
 225.0000   0.11387365E-01  -0.22161441E+03   0.19867833E+01   0.20813406E-03   0.66531699E+00   0.44221801E+00
 226.0000   0.11417622E-01  -0.21962184E+03   0.20015023E+01   0.20870001E-03   0.66526972E+00   0.44229541E+00
 227.0000   0.11464023E-01  -0.21759456E+03   0.20192127E+01   0.20881911E-03   0.66521851E+00   0.44310466E+00
 228.0000   0.11495809E-01  -0.21559552E+03   0.20437678E+01   0.20900844E-03   0.66516046E+00   0.44280282E+00
 229.0000   0.11538462E-01  -0.21353746E+03   0.20546738E+01   0.20994521E-03   0.66510954E+00   0.44279848E+00
 230.0000   0.11562014E-01  -0.21148997E+03   0.20686654E+01   0.21039609E-03   0.66505486E+00   0.44171425E+00
 231.0000   0.11604218E-01  -0.20940792E+03   0.20923051E+01   0.20982319E-03   0.66498953E+00   0.44358758E+00
 232.0000   0.11642503E-01  -0.20728690E+03   0.21093234E+01   0.21124997E-03   0.66492641E+00   0.44218799E+00
 233.0000   0.11676974E-01  -0.20520262E+03   0.21246344E+01   0.21095954E-03   0.66486268E+00   0.44309027E+00
 234.0000   0.11711408E-01  -0.20303171E+03   0.21406419E+01   0.21175188E-03   0.66479448E+00   0.44244655E+00
 235.0000   0.11757919E-01  -0.20088090E+03   0.21505114E+01   0.21145909E-03   0.66472890E+00   0.44333974E+00
 236.0000   0.11790953E-01  -0.19874685E+03   0.21803593E+01   0.21242395E-03   0.66464253E+00   0.44319430E+00
 237.0000   0.11823828E-01  -0.19657150E+03   0.21922066E+01   0.21220252E-03   0.66456896E+00   0.44354243E+00
 238.0000   0.11864002E-01  -0.19433611E+03   0.22224315E+01   0.21320210E-03   0.66447272E+00   0.44306122E+00
 239.0000   0.11901436E-01  -0.19212027E+03   0.22448258E+01   0.21314947E-03   0.66438075E+00   0.44419532E+00
 240.0000   0.11939284E-01  -0.18986814E+03   0.22577388E+01   0.21378170E-03   0.66429334E+00   0.44368477E+00
 241.0000   0.11974629E-01  -0.18758859E+03   0.22846139E+01   0.21394469E-03   0.66418636E+00   0.44426495E+00
 242.0000   0.12017819E-01  -0.18533212E+03   0.23007215E+01   0.21506576E-03   0.66408670E+00   0.44345376E+00
 243.0000   0.12052832E-01  -0.18297684E+03   0.23297715E+01   0.21496168E-03   0.66396481E+00   0.44398133E+00
 244.0000   0.12076603E-01  -0.18063317E+03   0.23423831E+01   0.21488011E-03   0.66385576E+00   0.44369567E+00
 245.0000   0.12123014E-01  -0.17829759E+03   0.23683143E+01   0.21609011E-03   0.66372736E+00   0.44367455E+00
 246.0000   0.12167090E-01  -0.17593829E+03   0.23890281E+01   0.21589154E-03   0.66359620E+00   0.44408068E+00
 247.0000   0.12203445E-01  -0.17354754E+03   0.24027765E+01   0.21611854E-03   0.66346672E+00   0.44439339E+00
 248.0000   0.12240558E-01  -0.17111646E+03   0.24075058E+01   0.21734018E-03   0.66334310E+00   0.44399083E+00
 249.0000   0.12268234E-01  -0.16870114E+03   0.24252760E+01   0.21756866E-03   0.66319272E+00   0.44385025E+00
 250.0000   0.12315024E-01  -0.16626203E+03   0.24259271E+01   0.21772464E-03   0.66305869E+00   0.44405091E+00
 251.0000   0.12351401E-01  -0.16385835E+03   0.24313570E+01   0.21842607E-03   0.66291165E+00   0.44385992E+00
 252.0000   0.12389083E-01  -0.16141155E+03   0.24086124E+01   0.21866342E-03   0.66279959E+00   0.44429436E+00
 253.0000   0.12437369E-01  -0.15903741E+03   0.23687278E+01   0.21898244E-03   0.66271308E+00   0.44514719E+00
 254.0000   0.12461590E-01  -0.15673089E+03   0.23256019E+01   0.21929830E-03   0.66263386E+00   0.44450862E+00
 255.0000   0.12491596E-01  -0.15441118E+03   0.22768862E+01   0.22023054E-03   0.66256059E+00   0.44366642E+00
 256.0000   0.12539887E-01  -0.15214611E+03   0.21933377E+01   0.22009852E-03   0.66255404E+00   0.44492662E+00
 257.0000   0.12570619E-01  -0.15002014E+03   0.21114213E+01   0.22068257E-03   0.66255761E+00   0.44439590E+00
 258.0000   0.12606374E-01  -0.14793382E+03   0.20217354E+01   0.22091043E-03   0.66258240E+00   0.44466879E+00
 259.0000   0.12619130E-01  -0.14596973E+03   0.19228659E+01   0.22105702E-03   0.66264238E+00   0.44450130E+00
 260.0000   0.12654860E-01  -0.14409213E+03   0.18235418E+01   0.22081198E-03   0.66271615E+00   0.44488463E+00
 261.0000   0.12706432E-01  -0.14231636E+03   0.17258613E+01   0.22224679E-03   0.66280213E+00   0.44427543E+00
 262.0000   0.12722690E-01  -0.14065027E+03   0.16413825E+01   0.22154023E-03   0.66287274E+00   0.44484666E+00
 263.0000   0.12750627E-01  -0.13901628E+03   0.15532491E+01   0.22174806E-03   0.66296217E+00   0.44466606E+00
 264.0000   0.12782092E-01  -0.13754169E+03   0.14717085E+01   0.22267929E-03   0.66305421E+00   0.44381712E+00
 265.0000   0.12818820E-01  -0.13609872E+03   0.13946465E+01   0.22319531E-03   0.66314536E+00   0.44389886E+00
 266.0000   0.12840432E-01  -0.13471967E+03   0.13261668E+01   0.22242446E-03   0.66322328E+00   0.44461540E+00
 267.0000   0.12862969E-01  -0.13344814E+03   0.12682474E+01   0.22289910E-03   0.66328605E+00   0.44385464E+00
 268.0000   0.12890755E-01  -0.13218509E+03   0.12012378E+01   0.22249914E-03   0.66338080E+00   0.44425157E+00
 269.0000   0.12912552E-01  -0.13102845E+03   0.11560803E+01   0.22249575E-03   0.66342503E+00   0.44461857E+00
 270.0000   0.12937110E-01  -0.12988385E+03   0.11083879E+01   0.22262383E-03   0.66348138E+00   0.44425416E+00
 271.0000   0.12966763E-01  -0.12882251E+03   0.10670398E+01   0.22322111E-03   0.66352762E+00   0.44396537E+00
 272.0000   0.12999052E-01  -0.12775296E+03   0.10283889E+01   0.22291224E-03   0.66356844E+00   0.44488377E+00
 273.0000   0.13009290E-01  -0.12675137E+03   0.98919401E+00   0.22283680E-03   0.66361814E+00   0.44441090E+00
 274.0000   0.13038148E-01  -0.12578109E+03   0.95742465E+00   0.22347101E-03   0.66364940E+00   0.44382210E+00
 275.0000   0.13059513E-01  -0.12485229E+03   0.92966653E+00   0.22261117E-03   0.66367272E+00   0.44441514E+00
 276.0000   0.13082849E-01  -0.12392942E+03   0.90022373E+00   0.22188682E-03   0.66370314E+00   0.44511984E+00
 277.0000   0.13099717E-01  -0.12302121E+03   0.87615388E+00   0.22220957E-03   0.66371917E+00   0.44469916E+00
 278.0000   0.13127215E-01  -0.12215621E+03   0.85274016E+00   0.22237316E-03   0.66373704E+00   0.44500058E+00
 279.0000   0.13145370E-01  -0.12132156E+03   0.82737947E+00   0.22255760E-03   0.66376540E+00   0.44446753E+00
 280.0000   0.13163529E-01  -0.12051925E+03   0.80796458E+00   0.22242453E-03   0.66377385E+00   0.44407781E+00
 281.0000   0.13185135E-01  -0.11971321E+03   0.78840802E+00   0.22242096E-03   0.66378723E+00   0.44418612E+00
 282.0000   0.13213989E-01  -0.11891646E+03   0.76798971E+00   0.22209616E-03   0.66380390E+00   0.44456816E+00
 283.0000   0.13224161E-01  -0.11815881E+03   0.75349306E+00   0.22144718E-03   0.66380243E+00   0.44506402E+00
 284.0000   0.13244054E-01  -0.11742317E+03   0.73795485E+00   0.22163411E-03   0.66380657E+00   0.44457018E+00
 285.0000   0.13270283E-01  -0.11670368E+03   0.72163852E+00   0.22176399E-03   0.66381480E+00   0.44452206E+00
