 #written on 11Aug2024 at 12:48:30 
 #----------------------------------------------- MONTECARLO ---------------------------------------------------#
 # Temp      Magnetization     Energy_ave          C_M              Sus              U_E              U_M       #
 #--------------------------------------------------------------------------------------------------------------#
   5.0000   0.26940256E-02  -0.12339844E+03   0.10233367E+01   0.70087616E-03   0.66666555E+00   0.35876101E+00
   6.0000   0.29652885E-02  -0.12237498E+03   0.10237228E+01   0.69443755E-03   0.66666503E+00   0.36315167E+00
   7.0000   0.32164988E-02  -0.12134763E+03   0.10383871E+01   0.68624678E-03   0.66666436E+00   0.36838503E+00
   8.0000   0.34514134E-02  -0.12031523E+03   0.10327779E+01   0.67979991E-03   0.66666362E+00   0.37238509E+00
   9.0000   0.36723683E-02  -0.11927725E+03   0.10404618E+01   0.67563335E-03   0.66666272E+00   0.37485936E+00
  10.0000   0.38883220E-02  -0.11823421E+03   0.10462083E+01   0.67217791E-03   0.66666168E+00   0.37963767E+00
  11.0000   0.40923039E-02  -0.11718702E+03   0.10520153E+01   0.66679598E-03   0.66666049E+00   0.38349734E+00
  12.0000   0.42901596E-02  -0.11613128E+03   0.10509244E+01   0.66166511E-03   0.66665919E+00   0.38768413E+00
  13.0000   0.44795293E-02  -0.11507277E+03   0.10590820E+01   0.65629629E-03   0.66665766E+00   0.39140779E+00
  14.0000   0.46608962E-02  -0.11400669E+03   0.10704906E+01   0.65369553E-03   0.66665591E+00   0.39441736E+00
  15.0000   0.48451472E-02  -0.11293516E+03   0.10710721E+01   0.65005947E-03   0.66665407E+00   0.39830210E+00
  16.0000   0.50167647E-02  -0.11185726E+03   0.10835122E+01   0.64799320E-03   0.66665189E+00   0.40049604E+00
  17.0000   0.51900823E-02  -0.11077040E+03   0.10882742E+01   0.64599381E-03   0.66664958E+00   0.40335363E+00
  18.0000   0.53550463E-02  -0.10968113E+03   0.11012402E+01   0.64362956E-03   0.66664690E+00   0.40585590E+00
  19.0000   0.55162508E-02  -0.10857940E+03   0.11018906E+01   0.64125956E-03   0.66664418E+00   0.40851805E+00
  20.0000   0.56807139E-02  -0.10747224E+03   0.11123396E+01   0.64123535E-03   0.66664099E+00   0.41046469E+00
  21.0000   0.58465438E-02  -0.10635913E+03   0.11168934E+01   0.64006289E-03   0.66663765E+00   0.41285766E+00
  22.0000   0.59997002E-02  -0.10523477E+03   0.11267434E+01   0.63908435E-03   0.66663385E+00   0.41579561E+00
  23.0000   0.61522557E-02  -0.10410338E+03   0.11373299E+01   0.63859536E-03   0.66662967E+00   0.41755977E+00
  24.0000   0.63046126E-02  -0.10295695E+03   0.11480596E+01   0.63886191E-03   0.66662509E+00   0.41963249E+00
  25.0000   0.64483404E-02  -0.10180805E+03   0.11550553E+01   0.63494864E-03   0.66662025E+00   0.42289432E+00
  26.0000   0.65989229E-02  -0.10064620E+03   0.11656318E+01   0.63671563E-03   0.66661483E+00   0.42385592E+00
  27.0000   0.67477480E-02  -0.99473705E+02   0.11814931E+01   0.63654972E-03   0.66660866E+00   0.42630135E+00
  28.0000   0.68921252E-02  -0.98289830E+02   0.11886558E+01   0.63601603E-03   0.66660238E+00   0.42837310E+00
  29.0000   0.70355863E-02  -0.97086550E+02   0.12066409E+01   0.63859527E-03   0.66659492E+00   0.42878910E+00
  30.0000   0.71707741E-02  -0.95878685E+02   0.12220734E+01   0.63956006E-03   0.66658694E+00   0.43000986E+00
  31.0000   0.73116783E-02  -0.94651609E+02   0.12351742E+01   0.63831215E-03   0.66657838E+00   0.43262027E+00
  32.0000   0.74575006E-02  -0.93415038E+02   0.12449641E+01   0.64065225E-03   0.66656933E+00   0.43356548E+00
  33.0000   0.75875544E-02  -0.92159163E+02   0.12678122E+01   0.64388678E-03   0.66655836E+00   0.43347900E+00
  34.0000   0.77327473E-02  -0.90882526E+02   0.12864665E+01   0.64560534E-03   0.66654671E+00   0.43473154E+00
  35.0000   0.78679596E-02  -0.89586942E+02   0.13038493E+01   0.64461895E-03   0.66653408E+00   0.43631476E+00
  36.0000   0.80060212E-02  -0.88274070E+02   0.13255320E+01   0.64815874E-03   0.66651980E+00   0.43764281E+00
  37.0000   0.81347864E-02  -0.86933385E+02   0.13533170E+01   0.64924685E-03   0.66650336E+00   0.43791326E+00
  38.0000   0.82682064E-02  -0.85572525E+02   0.13770725E+01   0.65200110E-03   0.66648578E+00   0.43893856E+00
  39.0000   0.84058853E-02  -0.84185304E+02   0.14028234E+01   0.65389034E-03   0.66646614E+00   0.44030309E+00
  40.0000   0.85376910E-02  -0.82758510E+02   0.14373182E+01   0.65656010E-03   0.66644302E+00   0.44051524E+00
  41.0000   0.86788160E-02  -0.81305566E+02   0.14697795E+01   0.66212279E-03   0.66641776E+00   0.44049586E+00
  42.0000   0.88090311E-02  -0.79819247E+02   0.15090574E+01   0.66294429E-03   0.66638843E+00   0.44168128E+00
  43.0000   0.89485348E-02  -0.78287827E+02   0.15464982E+01   0.66874632E-03   0.66635600E+00   0.44157888E+00
  44.0000   0.90744570E-02  -0.76717611E+02   0.15978835E+01   0.67044573E-03   0.66631672E+00   0.44300862E+00
  45.0000   0.92144873E-02  -0.75099687E+02   0.16500574E+01   0.67482534E-03   0.66627228E+00   0.44302655E+00
  46.0000   0.93514647E-02  -0.73414787E+02   0.17103662E+01   0.67755062E-03   0.66621975E+00   0.44389608E+00
  47.0000   0.94808025E-02  -0.71671309E+02   0.17727259E+01   0.68307364E-03   0.66615934E+00   0.44411560E+00
  48.0000   0.96200690E-02  -0.69877211E+02   0.18351104E+01   0.68838916E-03   0.66609051E+00   0.44371012E+00
  49.0000   0.97675125E-02  -0.68009935E+02   0.19047643E+01   0.69277491E-03   0.66600888E+00   0.44468373E+00
  50.0000   0.98971198E-02  -0.66073177E+02   0.19578756E+01   0.69771099E-03   0.66592075E+00   0.44446352E+00
  51.0000   0.10036937E-01  -0.64109332E+02   0.19823647E+01   0.70375830E-03   0.66583202E+00   0.44433353E+00
  52.0000   0.10182506E-01  -0.62113382E+02   0.19878769E+01   0.71103278E-03   0.66573943E+00   0.44435766E+00
  53.0000   0.10323901E-01  -0.60145535E+02   0.19455495E+01   0.71704680E-03   0.66566074E+00   0.44384032E+00
  54.0000   0.10452968E-01  -0.58230075E+02   0.18733347E+01   0.72119356E-03   0.66559355E+00   0.44448640E+00
  55.0000   0.10568465E-01  -0.56396691E+02   0.17788508E+01   0.72462925E-03   0.66553946E+00   0.44406353E+00
  56.0000   0.10700059E-01  -0.54680870E+02   0.16663589E+01   0.72832314E-03   0.66550193E+00   0.44430078E+00
  57.0000   0.10823405E-01  -0.53070389E+02   0.15560483E+01   0.73022581E-03   0.66547047E+00   0.44523739E+00
  58.0000   0.10940470E-01  -0.51568463E+02   0.14472888E+01   0.73536969E-03   0.66544639E+00   0.44424112E+00
  59.0000   0.11047281E-01  -0.50176077E+02   0.13535308E+01   0.73708371E-03   0.66541940E+00   0.44409670E+00
  60.0000   0.11149944E-01  -0.48864943E+02   0.12650008E+01   0.73956514E-03   0.66539570E+00   0.44412785E+00
  61.0000   0.11263189E-01  -0.47636901E+02   0.11868098E+01   0.74177296E-03   0.66536968E+00   0.44441443E+00
  62.0000   0.11354166E-01  -0.46481340E+02   0.11165067E+01   0.74024944E-03   0.66534284E+00   0.44434866E+00
  63.0000   0.11450331E-01  -0.45393819E+02   0.10562443E+01   0.74184790E-03   0.66531104E+00   0.44454734E+00
  64.0000   0.11536828E-01  -0.44366793E+02   0.10007915E+01   0.74237278E-03   0.66527915E+00   0.44406775E+00
  65.0000   0.11627031E-01  -0.43393047E+02   0.95115270E+00   0.74192903E-03   0.66524484E+00   0.44419976E+00
  66.0000   0.11719912E-01  -0.42465069E+02   0.90312989E+00   0.74178290E-03   0.66521322E+00   0.44414368E+00
  67.0000   0.11804331E-01  -0.41580641E+02   0.86280051E+00   0.74164006E-03   0.66517420E+00   0.44417033E+00
  68.0000   0.11891800E-01  -0.40736341E+02   0.82347809E+00   0.74161242E-03   0.66513813E+00   0.44414062E+00
  69.0000   0.11975335E-01  -0.39933254E+02   0.78826205E+00   0.74050714E-03   0.66509890E+00   0.44443794E+00
  70.0000   0.12053482E-01  -0.39164881E+02   0.75359929E+00   0.73915743E-03   0.66506324E+00   0.44467336E+00
  71.0000   0.12142185E-01  -0.38424498E+02   0.72113817E+00   0.73835988E-03   0.66502708E+00   0.44521562E+00
  72.0000   0.12205582E-01  -0.37717695E+02   0.69264779E+00   0.73752127E-03   0.66498554E+00   0.44466109E+00
  73.0000   0.12286727E-01  -0.37038428E+02   0.66488202E+00   0.73715510E-03   0.66494662E+00   0.44417052E+00
  74.0000   0.12350920E-01  -0.36385189E+02   0.64042788E+00   0.73452876E-03   0.66490241E+00   0.44415285E+00
  75.0000   0.12427963E-01  -0.35758069E+02   0.61471261E+00   0.73400661E-03   0.66486581E+00   0.44432132E+00
  76.0000   0.12506070E-01  -0.35155576E+02   0.59253382E+00   0.73244132E-03   0.66482274E+00   0.44462233E+00
  77.0000   0.12564135E-01  -0.34573929E+02   0.57147987E+00   0.73078136E-03   0.66477924E+00   0.44457157E+00
  78.0000   0.12639010E-01  -0.34015419E+02   0.54933196E+00   0.73072190E-03   0.66474345E+00   0.44412397E+00
  79.0000   0.12693957E-01  -0.33476912E+02   0.53118518E+00   0.72772904E-03   0.66469720E+00   0.44415044E+00
  80.0000   0.12757211E-01  -0.32951884E+02   0.51114616E+00   0.72595989E-03   0.66466079E+00   0.44344950E+00
  81.0000   0.12822013E-01  -0.32450585E+02   0.49574204E+00   0.72496278E-03   0.66461032E+00   0.44376744E+00
  82.0000   0.12889465E-01  -0.31962246E+02   0.47893966E+00   0.72196740E-03   0.66456864E+00   0.44438835E+00
  83.0000   0.12942899E-01  -0.31488216E+02   0.46349968E+00   0.71819563E-03   0.66452295E+00   0.44480310E+00
  84.0000   0.13011792E-01  -0.31030590E+02   0.44829780E+00   0.71788531E-03   0.66448005E+00   0.44473979E+00
