 #written on 22Jan2025 at 21:15:12 
 #----------------------------------------------- MONTECARLO ---------------------------------------------------#
 # Temp      Magnetization     Energy_ave          C_M              Sus              U_E              U_M       #
 #--------------------------------------------------------------------------------------------------------------#
   6.0000   0.26276249E-02  -0.15178535E+03   0.10190574E+01   0.68889418E-03   0.66666578E+00   0.35097145E+00
   7.0000   0.28392719E-02  -0.15076248E+03   0.10242025E+01   0.67604898E-03   0.66666544E+00   0.35595888E+00
   8.0000   0.30423049E-02  -0.14973846E+03   0.10306890E+01   0.67108167E-03   0.66666503E+00   0.35878153E+00
   9.0000   0.32373633E-02  -0.14870927E+03   0.10309553E+01   0.66957373E-03   0.66666457E+00   0.36034658E+00
  10.0000   0.34248294E-02  -0.14767725E+03   0.10402554E+01   0.66663219E-03   0.66666402E+00   0.36331273E+00
  11.0000   0.35944380E-02  -0.14664030E+03   0.10393276E+01   0.66128809E-03   0.66666342E+00   0.36522256E+00
  12.0000   0.37683665E-02  -0.14560044E+03   0.10425537E+01   0.65744247E-03   0.66666273E+00   0.36881205E+00
  13.0000   0.39317801E-02  -0.14455438E+03   0.10449524E+01   0.65554215E-03   0.66666197E+00   0.37112179E+00
  14.0000   0.40863901E-02  -0.14350585E+03   0.10438318E+01   0.64943693E-03   0.66666115E+00   0.37366705E+00
  15.0000   0.42394217E-02  -0.14245434E+03   0.10518361E+01   0.64605328E-03   0.66666019E+00   0.37677316E+00
  16.0000   0.43857457E-02  -0.14139444E+03   0.10567770E+01   0.64281141E-03   0.66665915E+00   0.37846338E+00
  17.0000   0.45303506E-02  -0.14033207E+03   0.10630121E+01   0.64135228E-03   0.66665800E+00   0.38094323E+00
  18.0000   0.46714297E-02  -0.13926426E+03   0.10660195E+01   0.63830573E-03   0.66665677E+00   0.38294764E+00
  19.0000   0.48194474E-02  -0.13819215E+03   0.10734506E+01   0.63560405E-03   0.66665539E+00   0.38610825E+00
  20.0000   0.49477746E-02  -0.13711421E+03   0.10790579E+01   0.63164869E-03   0.66665391E+00   0.38762337E+00
  21.0000   0.50802451E-02  -0.13603232E+03   0.10870340E+01   0.62996722E-03   0.66665228E+00   0.39020465E+00
  22.0000   0.52074607E-02  -0.13493922E+03   0.10891701E+01   0.62577726E-03   0.66665059E+00   0.39281582E+00
  23.0000   0.53416168E-02  -0.13384742E+03   0.10959879E+01   0.62674877E-03   0.66664869E+00   0.39430754E+00
  24.0000   0.54651569E-02  -0.13274825E+03   0.11045729E+01   0.62319187E-03   0.66664661E+00   0.39695673E+00
  25.0000   0.55890667E-02  -0.13164237E+03   0.11083880E+01   0.62042814E-03   0.66664446E+00   0.39939107E+00
  26.0000   0.57154692E-02  -0.13052803E+03   0.11162109E+01   0.62174871E-03   0.66664207E+00   0.39994624E+00
  27.0000   0.58337130E-02  -0.12940808E+03   0.11208262E+01   0.61769778E-03   0.66663957E+00   0.40328891E+00
  28.0000   0.59534210E-02  -0.12827911E+03   0.11312341E+01   0.61620448E-03   0.66663673E+00   0.40546901E+00
  29.0000   0.60711062E-02  -0.12714489E+03   0.11398243E+01   0.61495983E-03   0.66663373E+00   0.40600218E+00
  30.0000   0.61886030E-02  -0.12600665E+03   0.11463564E+01   0.61407161E-03   0.66663058E+00   0.40805378E+00
  31.0000   0.63043009E-02  -0.12485885E+03   0.11560355E+01   0.61402702E-03   0.66662709E+00   0.40947519E+00
  32.0000   0.64199311E-02  -0.12369920E+03   0.11630766E+01   0.61356701E-03   0.66662344E+00   0.41112858E+00
  33.0000   0.65306743E-02  -0.12253617E+03   0.11723818E+01   0.61176281E-03   0.66661944E+00   0.41258239E+00
  34.0000   0.66448663E-02  -0.12135638E+03   0.11829830E+01   0.61129829E-03   0.66661510E+00   0.41436818E+00
  35.0000   0.67521481E-02  -0.12017611E+03   0.11900345E+01   0.61103930E-03   0.66661061E+00   0.41591032E+00
  36.0000   0.68645297E-02  -0.11897991E+03   0.12009829E+01   0.61058115E-03   0.66660561E+00   0.41707163E+00
  37.0000   0.69795822E-02  -0.11777106E+03   0.12126671E+01   0.61083460E-03   0.66660020E+00   0.41856530E+00
  38.0000   0.70883034E-02  -0.11655824E+03   0.12219050E+01   0.60978383E-03   0.66659454E+00   0.42095862E+00
  39.0000   0.71870141E-02  -0.11532906E+03   0.12354191E+01   0.60869078E-03   0.66658821E+00   0.42173430E+00
  40.0000   0.72969685E-02  -0.11408686E+03   0.12451681E+01   0.60869510E-03   0.66658167E+00   0.42293916E+00
  41.0000   0.74064456E-02  -0.11283309E+03   0.12647166E+01   0.60854564E-03   0.66657394E+00   0.42462747E+00
  42.0000   0.75108965E-02  -0.11156695E+03   0.12751238E+01   0.60887065E-03   0.66656632E+00   0.42576683E+00
  43.0000   0.76205070E-02  -0.11028365E+03   0.12846321E+01   0.61059649E-03   0.66655823E+00   0.42635788E+00
  44.0000   0.77221640E-02  -0.10898219E+03   0.13088419E+01   0.60879824E-03   0.66654821E+00   0.42876332E+00
  45.0000   0.78281564E-02  -0.10766763E+03   0.13261491E+01   0.61208458E-03   0.66653805E+00   0.42865199E+00
  46.0000   0.79395493E-02  -0.10633500E+03   0.13369534E+01   0.61230065E-03   0.66652776E+00   0.43018015E+00
  47.0000   0.80356043E-02  -0.10498469E+03   0.13635699E+01   0.61114427E-03   0.66651495E+00   0.43130007E+00
  48.0000   0.81446775E-02  -0.10360897E+03   0.13831159E+01   0.61328791E-03   0.66650186E+00   0.43268122E+00
  49.0000   0.82523228E-02  -0.10221736E+03   0.14018045E+01   0.61448306E-03   0.66648785E+00   0.43362511E+00
  50.0000   0.83528747E-02  -0.10079987E+03   0.14293847E+01   0.61717751E-03   0.66647145E+00   0.43381893E+00
  51.0000   0.84580180E-02  -0.99360348E+02   0.14569832E+01   0.61786737E-03   0.66645360E+00   0.43483577E+00
  52.0000   0.85531743E-02  -0.97896052E+02   0.14802039E+01   0.61846155E-03   0.66643487E+00   0.43575152E+00
  53.0000   0.86633547E-02  -0.96403839E+02   0.15108406E+01   0.61964937E-03   0.66641323E+00   0.43621693E+00
  54.0000   0.87706451E-02  -0.94881065E+02   0.15405005E+01   0.62197523E-03   0.66638974E+00   0.43741496E+00
  55.0000   0.88695710E-02  -0.93322986E+02   0.15676278E+01   0.62277644E-03   0.66636450E+00   0.43815813E+00
  56.0000   0.89751452E-02  -0.91748695E+02   0.15918207E+01   0.62511449E-03   0.66633764E+00   0.43882324E+00
  57.0000   0.90776387E-02  -0.90120833E+02   0.16380798E+01   0.62753570E-03   0.66630311E+00   0.43927244E+00
  58.0000   0.91863167E-02  -0.88464732E+02   0.16800880E+01   0.63002137E-03   0.66626598E+00   0.44009788E+00
  59.0000   0.92916400E-02  -0.86763425E+02   0.17195835E+01   0.63379565E-03   0.66622561E+00   0.44037595E+00
  60.0000   0.93943626E-02  -0.85024449E+02   0.17668969E+01   0.63497391E-03   0.66617864E+00   0.44117212E+00
  61.0000   0.94992980E-02  -0.83221943E+02   0.18137994E+01   0.63817547E-03   0.66612623E+00   0.44125973E+00
  62.0000   0.96057751E-02  -0.81377204E+02   0.18716895E+01   0.64007861E-03   0.66606423E+00   0.44195049E+00
  63.0000   0.97130423E-02  -0.79479964E+02   0.19255515E+01   0.64398579E-03   0.66599588E+00   0.44288249E+00
  64.0000   0.98266970E-02  -0.77517398E+02   0.19909221E+01   0.64780525E-03   0.66591444E+00   0.44304016E+00
  65.0000   0.99283661E-02  -0.75489111E+02   0.20672745E+01   0.65342624E-03   0.66581733E+00   0.44212547E+00
  66.0000   0.10038406E-01  -0.73377242E+02   0.21415218E+01   0.65264444E-03   0.66570669E+00   0.44391193E+00
  67.0000   0.10139636E-01  -0.71193880E+02   0.22231826E+01   0.65882980E-03   0.66557593E+00   0.44304967E+00
  68.0000   0.10268500E-01  -0.68938864E+02   0.23128476E+01   0.66393180E-03   0.66542050E+00   0.44361273E+00
  69.0000   0.10373847E-01  -0.66589025E+02   0.23847084E+01   0.66826739E-03   0.66524802E+00   0.44354428E+00
  70.0000   0.10482512E-01  -0.64218440E+02   0.23395868E+01   0.67093546E-03   0.66512394E+00   0.44446510E+00
  71.0000   0.10592039E-01  -0.61965852E+02   0.21456492E+01   0.67629672E-03   0.66509919E+00   0.44416216E+00
  72.0000   0.10692878E-01  -0.59965570E+02   0.18383377E+01   0.67914119E-03   0.66518953E+00   0.44410047E+00
  73.0000   0.10787202E-01  -0.58263033E+02   0.15557724E+01   0.68174223E-03   0.66530517E+00   0.44424793E+00
  74.0000   0.10876936E-01  -0.56813788E+02   0.13603815E+01   0.68221297E-03   0.66538114E+00   0.44474642E+00
  75.0000   0.10952255E-01  -0.55539188E+02   0.12036340E+01   0.68396887E-03   0.66544495E+00   0.44403518E+00
  76.0000   0.11025780E-01  -0.54390724E+02   0.10946967E+01   0.68523024E-03   0.66547784E+00   0.44403298E+00
  77.0000   0.11098673E-01  -0.53342639E+02   0.10144822E+01   0.68314321E-03   0.66549136E+00   0.44460739E+00
  78.0000   0.11162436E-01  -0.52358595E+02   0.95064291E+00   0.68298752E-03   0.66549404E+00   0.44444712E+00
  79.0000   0.11246851E-01  -0.51436634E+02   0.89539878E+00   0.68374484E-03   0.66549291E+00   0.44449657E+00
  80.0000   0.11310753E-01  -0.50565928E+02   0.84834141E+00   0.68209070E-03   0.66548678E+00   0.44493572E+00
  81.0000   0.11370134E-01  -0.49737691E+02   0.80696044E+00   0.68153368E-03   0.66547777E+00   0.44447955E+00
  82.0000   0.11423523E-01  -0.48947442E+02   0.77144724E+00   0.68005931E-03   0.66546413E+00   0.44446579E+00
  83.0000   0.11483181E-01  -0.48193824E+02   0.73906469E+00   0.67910686E-03   0.66544919E+00   0.44464817E+00
  84.0000   0.11558750E-01  -0.47467504E+02   0.70744472E+00   0.67977840E-03   0.66543629E+00   0.44436048E+00
  85.0000   0.11607955E-01  -0.46773750E+02   0.68098779E+00   0.67787428E-03   0.66541779E+00   0.44443654E+00
  86.0000   0.11654568E-01  -0.46110865E+02   0.65633593E+00   0.67569646E-03   0.66539892E+00   0.44409907E+00
  87.0000   0.11722483E-01  -0.45463716E+02   0.63099082E+00   0.67460538E-03   0.66538383E+00   0.44440999E+00
  88.0000   0.11767056E-01  -0.44841423E+02   0.61086846E+00   0.67201352E-03   0.66536050E+00   0.44470473E+00
  89.0000   0.11820393E-01  -0.44240821E+02   0.58910775E+00   0.67181792E-03   0.66534289E+00   0.44354353E+00
  90.0000   0.11864492E-01  -0.43658571E+02   0.57132404E+00   0.66966977E-03   0.66531906E+00   0.44394839E+00
  91.0000   0.11935993E-01  -0.43100444E+02   0.55400184E+00   0.66867665E-03   0.66529570E+00   0.44485015E+00
  92.0000   0.11985947E-01  -0.42553532E+02   0.53622431E+00   0.66710248E-03   0.66527548E+00   0.44396971E+00
  93.0000   0.12025349E-01  -0.42026921E+02   0.52078050E+00   0.66487000E-03   0.66525134E+00   0.44471634E+00
  94.0000   0.12073549E-01  -0.41512282E+02   0.50525758E+00   0.66414228E-03   0.66522889E+00   0.44397156E+00
  95.0000   0.12125322E-01  -0.41011502E+02   0.49094589E+00   0.66247924E-03   0.66520452E+00   0.44432653E+00
  96.0000   0.12171162E-01  -0.40528461E+02   0.47831057E+00   0.66020111E-03   0.66517719E+00   0.44420294E+00
  97.0000   0.12219642E-01  -0.40060267E+02   0.46445493E+00   0.65856481E-03   0.66515565E+00   0.44418901E+00
  98.0000   0.12268079E-01  -0.39597993E+02   0.45340959E+00   0.65716074E-03   0.66512554E+00   0.44355328E+00
  99.0000   0.12312314E-01  -0.39152876E+02   0.44186769E+00   0.65598520E-03   0.66509904E+00   0.44386829E+00
 100.0000   0.12361987E-01  -0.38714296E+02   0.43016420E+00   0.65375468E-03   0.66507401E+00   0.44370020E+00
 101.0000   0.12409792E-01  -0.38290194E+02   0.42011171E+00   0.65052834E-03   0.66504473E+00   0.44510942E+00
 102.0000   0.12445767E-01  -0.37875401E+02   0.40978870E+00   0.64720254E-03   0.66501772E+00   0.44479284E+00
 103.0000   0.12488372E-01  -0.37472229E+02   0.39987182E+00   0.64652019E-03   0.66499054E+00   0.44479995E+00
 104.0000   0.12530680E-01  -0.37078560E+02   0.39018483E+00   0.64464577E-03   0.66496380E+00   0.44512100E+00
 105.0000   0.12573498E-01  -0.36689313E+02   0.38000117E+00   0.64216004E-03   0.66494026E+00   0.44505397E+00
 106.0000   0.12612337E-01  -0.36318183E+02   0.37212542E+00   0.64072008E-03   0.66490823E+00   0.44463663E+00
 107.0000   0.12645856E-01  -0.35945594E+02   0.36412330E+00   0.63755817E-03   0.66487686E+00   0.44496638E+00
 108.0000   0.12690311E-01  -0.35586102E+02   0.35725281E+00   0.63724931E-03   0.66484133E+00   0.44450116E+00
 109.0000   0.12721945E-01  -0.35234575E+02   0.34835193E+00   0.63368298E-03   0.66481783E+00   0.44478427E+00
 110.0000   0.12761102E-01  -0.34890573E+02   0.34093569E+00   0.63329252E-03   0.66478729E+00   0.44404255E+00
 111.0000   0.12800805E-01  -0.34554226E+02   0.33423587E+00   0.63020766E-03   0.66475385E+00   0.44490755E+00
 112.0000   0.12830694E-01  -0.34222116E+02   0.32680671E+00   0.62873591E-03   0.66472541E+00   0.44431242E+00
 113.0000   0.12874166E-01  -0.33899386E+02   0.32011084E+00   0.62813722E-03   0.66469433E+00   0.44399820E+00
 114.0000   0.12912636E-01  -0.33582468E+02   0.31442759E+00   0.62513330E-03   0.66465715E+00   0.44452738E+00
 115.0000   0.12950922E-01  -0.33269834E+02   0.30752761E+00   0.62320610E-03   0.66462932E+00   0.44460704E+00
 116.0000   0.12977941E-01  -0.32966299E+02   0.30124959E+00   0.62058308E-03   0.66459857E+00   0.44451626E+00
 117.0000   0.13006448E-01  -0.32662481E+02   0.29578790E+00   0.61902620E-03   0.66456239E+00   0.44414944E+00
 118.0000   0.13045700E-01  -0.32373444E+02   0.29045159E+00   0.61724923E-03   0.66452696E+00   0.44383679E+00
 119.0000   0.13078430E-01  -0.32084723E+02   0.28450826E+00   0.61497137E-03   0.66449710E+00   0.44444816E+00
 120.0000   0.13111686E-01  -0.31802974E+02   0.27962486E+00   0.61170817E-03   0.66445942E+00   0.44457732E+00
 121.0000   0.13148138E-01  -0.31526871E+02   0.27404354E+00   0.60997064E-03   0.66442886E+00   0.44481405E+00
 122.0000   0.13185435E-01  -0.31255026E+02   0.26983848E+00   0.60962126E-03   0.66438740E+00   0.44382600E+00
 123.0000   0.13212540E-01  -0.30988729E+02   0.26488635E+00   0.60690648E-03   0.66435299E+00   0.44437722E+00
 124.0000   0.13245404E-01  -0.30725309E+02   0.25940871E+00   0.60479169E-03   0.66432483E+00   0.44445490E+00
 125.0000   0.13276972E-01  -0.30467528E+02   0.25558453E+00   0.60207881E-03   0.66428186E+00   0.44490624E+00
