 #written on 30Jul2024 at 17:52:45 
 #----------------------------------------------- MONTECARLO ---------------------------------------------------#
 # Temp      Magnetization     Energy_ave          C_M              Sus              U_E              U_M       #
 #--------------------------------------------------------------------------------------------------------------#
 155.0000   0.90756590E-02  -0.29649284E+03   0.15648889E+01   0.19746747E-03   0.66638855E+00   0.43833915E+00
 156.0000   0.91129731E-02  -0.29491318E+03   0.15782888E+01   0.19842525E-03   0.66637949E+00   0.43763505E+00
 157.0000   0.91487240E-02  -0.29331149E+03   0.15896794E+01   0.19801655E-03   0.66637048E+00   0.43838912E+00
 158.0000   0.91908239E-02  -0.29172672E+03   0.16027755E+01   0.19933993E-03   0.66636094E+00   0.43753746E+00
 159.0000   0.92250128E-02  -0.29012844E+03   0.16162990E+01   0.19881703E-03   0.66635103E+00   0.43804592E+00
 160.0000   0.92698617E-02  -0.28850431E+03   0.16234201E+01   0.19894364E-03   0.66634202E+00   0.43942520E+00
 161.0000   0.93098141E-02  -0.28688094E+03   0.16428878E+01   0.19886609E-03   0.66633025E+00   0.44012221E+00
 162.0000   0.93456344E-02  -0.28521302E+03   0.16579507E+01   0.19946255E-03   0.66631888E+00   0.43986200E+00
 163.0000   0.93780546E-02  -0.28352467E+03   0.16778175E+01   0.19986561E-03   0.66630613E+00   0.43924499E+00
 164.0000   0.94307881E-02  -0.28186471E+03   0.16879819E+01   0.20097586E-03   0.66629515E+00   0.43961466E+00
 165.0000   0.94595495E-02  -0.28016617E+03   0.17013525E+01   0.20051245E-03   0.66628302E+00   0.43991202E+00
 166.0000   0.94934763E-02  -0.27845121E+03   0.17205833E+01   0.20086896E-03   0.66626918E+00   0.43967726E+00
 167.0000   0.95431064E-02  -0.27672649E+03   0.17338661E+01   0.20077944E-03   0.66625617E+00   0.44133583E+00
 168.0000   0.95733600E-02  -0.27499034E+03   0.17529612E+01   0.20089558E-03   0.66624135E+00   0.44111830E+00
 169.0000   0.96133164E-02  -0.27321223E+03   0.17698231E+01   0.20169428E-03   0.66622651E+00   0.44070052E+00
 170.0000   0.96520559E-02  -0.27145026E+03   0.17830167E+01   0.20219036E-03   0.66621215E+00   0.44091696E+00
 171.0000   0.97015388E-02  -0.26963950E+03   0.18093856E+01   0.20238606E-03   0.66619365E+00   0.44158866E+00
 172.0000   0.97358059E-02  -0.26783375E+03   0.18188544E+01   0.20300485E-03   0.66617919E+00   0.44101409E+00
 173.0000   0.97711090E-02  -0.26602032E+03   0.18496222E+01   0.20300370E-03   0.66615834E+00   0.44158379E+00
 174.0000   0.98160528E-02  -0.26414196E+03   0.18634293E+01   0.20353658E-03   0.66614116E+00   0.44186499E+00
 175.0000   0.98546332E-02  -0.26228468E+03   0.18863339E+01   0.20380776E-03   0.66612108E+00   0.44195301E+00
 176.0000   0.98909369E-02  -0.26039118E+03   0.19049906E+01   0.20444951E-03   0.66610120E+00   0.44197574E+00
 177.0000   0.99325004E-02  -0.25845144E+03   0.19326468E+01   0.20509425E-03   0.66607775E+00   0.44187832E+00
 178.0000   0.99690177E-02  -0.25652028E+03   0.19478277E+01   0.20466679E-03   0.66605724E+00   0.44257504E+00
 179.0000   0.10012384E-01  -0.25456750E+03   0.19744513E+01   0.20507960E-03   0.66603250E+00   0.44262248E+00
 180.0000   0.10058023E-01  -0.25256200E+03   0.20027515E+01   0.20619065E-03   0.66600587E+00   0.44265569E+00
 181.0000   0.10093545E-01  -0.25054860E+03   0.20275786E+01   0.20645393E-03   0.66597934E+00   0.44263980E+00
 182.0000   0.10124461E-01  -0.24850848E+03   0.20536744E+01   0.20666337E-03   0.66595126E+00   0.44248855E+00
 183.0000   0.10177121E-01  -0.24646090E+03   0.20702742E+01   0.20772924E-03   0.66592526E+00   0.44267332E+00
 184.0000   0.10212085E-01  -0.24439050E+03   0.21094884E+01   0.20760028E-03   0.66589023E+00   0.44304974E+00
 185.0000   0.10259672E-01  -0.24225370E+03   0.21333191E+01   0.20829182E-03   0.66585883E+00   0.44349907E+00
 186.0000   0.10292510E-01  -0.24012337E+03   0.21468212E+01   0.20920349E-03   0.66583029E+00   0.44227805E+00
 187.0000   0.10335715E-01  -0.23794618E+03   0.21894167E+01   0.20878700E-03   0.66578884E+00   0.44324611E+00
 188.0000   0.10383110E-01  -0.23574266E+03   0.22278327E+01   0.20972038E-03   0.66574686E+00   0.44394938E+00
 189.0000   0.10415512E-01  -0.23351651E+03   0.22412806E+01   0.21011835E-03   0.66571351E+00   0.44364265E+00
 190.0000   0.10461472E-01  -0.23128252E+03   0.22665153E+01   0.21032739E-03   0.66567349E+00   0.44366718E+00
 191.0000   0.10500668E-01  -0.22898706E+03   0.22960524E+01   0.21110260E-03   0.66562949E+00   0.44397352E+00
 192.0000   0.10542423E-01  -0.22670458E+03   0.23068417E+01   0.21207678E-03   0.66559235E+00   0.44355276E+00
 193.0000   0.10584843E-01  -0.22441175E+03   0.23169447E+01   0.21209391E-03   0.66555367E+00   0.44381667E+00
 194.0000   0.10626049E-01  -0.22208280E+03   0.23182511E+01   0.21302792E-03   0.66551726E+00   0.44361484E+00
 195.0000   0.10662285E-01  -0.21975106E+03   0.23113093E+01   0.21338272E-03   0.66548336E+00   0.44318975E+00
 196.0000   0.10712985E-01  -0.21743964E+03   0.22644638E+01   0.21383596E-03   0.66546953E+00   0.44372062E+00
 197.0000   0.10750629E-01  -0.21516849E+03   0.22220865E+01   0.21420636E-03   0.66545399E+00   0.44431904E+00
 198.0000   0.10792892E-01  -0.21298140E+03   0.21514902E+01   0.21431845E-03   0.66545490E+00   0.44445420E+00
 199.0000   0.10827736E-01  -0.21087190E+03   0.20666926E+01   0.21515880E-03   0.66546657E+00   0.44431076E+00
 200.0000   0.10880771E-01  -0.20884875E+03   0.19797386E+01   0.21597593E-03   0.66548221E+00   0.44421399E+00
 201.0000   0.10901833E-01  -0.20690386E+03   0.18847102E+01   0.21591285E-03   0.66550557E+00   0.44391879E+00
 202.0000   0.10949164E-01  -0.20506867E+03   0.17837231E+01   0.21627423E-03   0.66553640E+00   0.44459382E+00
 203.0000   0.10980727E-01  -0.20334914E+03   0.16902912E+01   0.21637952E-03   0.66556665E+00   0.44472251E+00
 204.0000   0.11020663E-01  -0.20169682E+03   0.16037103E+01   0.21712483E-03   0.66559539E+00   0.44451705E+00
 205.0000   0.11049845E-01  -0.20013441E+03   0.15303145E+01   0.21675421E-03   0.66561843E+00   0.44464814E+00
 206.0000   0.11078268E-01  -0.19862535E+03   0.14533528E+01   0.21723612E-03   0.66564607E+00   0.44405338E+00
 207.0000   0.11110072E-01  -0.19721225E+03   0.13883434E+01   0.21772878E-03   0.66566857E+00   0.44403945E+00
 208.0000   0.11143093E-01  -0.19583299E+03   0.13296228E+01   0.21804907E-03   0.66568805E+00   0.44376389E+00
 209.0000   0.11177022E-01  -0.19453468E+03   0.12886741E+01   0.21824473E-03   0.66569639E+00   0.44405422E+00
 210.0000   0.11210582E-01  -0.19328193E+03   0.12382159E+01   0.21861066E-03   0.66571354E+00   0.44399896E+00
 211.0000   0.11239842E-01  -0.19204403E+03   0.11978496E+01   0.21860498E-03   0.66572385E+00   0.44435392E+00
 212.0000   0.11268404E-01  -0.19088194E+03   0.11598913E+01   0.21841390E-03   0.66573413E+00   0.44453166E+00
 213.0000   0.11292776E-01  -0.18972330E+03   0.11295972E+01   0.21857218E-03   0.66573864E+00   0.44400747E+00
 214.0000   0.11325169E-01  -0.18860532E+03   0.10973377E+01   0.21851602E-03   0.66574607E+00   0.44465457E+00
 215.0000   0.11353065E-01  -0.18753813E+03   0.10702454E+01   0.21876641E-03   0.66575015E+00   0.44459265E+00
 216.0000   0.11386891E-01  -0.18647690E+03   0.10467428E+01   0.21863018E-03   0.66575181E+00   0.44469852E+00
 217.0000   0.11413300E-01  -0.18543138E+03   0.10206801E+01   0.21808846E-03   0.66575612E+00   0.44591079E+00
 218.0000   0.11435557E-01  -0.18441805E+03   0.10001290E+01   0.21804628E-03   0.66575637E+00   0.44517104E+00
 219.0000   0.11458547E-01  -0.18341403E+03   0.97931577E+00   0.21881049E-03   0.66575742E+00   0.44415291E+00
 220.0000   0.11491235E-01  -0.18245591E+03   0.96063776E+00   0.21947228E-03   0.66575712E+00   0.44401462E+00
 221.0000   0.11520421E-01  -0.18151038E+03   0.94346093E+00   0.21917259E-03   0.66575600E+00   0.44435055E+00
 222.0000   0.11548686E-01  -0.18056698E+03   0.92524226E+00   0.21917875E-03   0.66575602E+00   0.44446515E+00
 223.0000   0.11565337E-01  -0.17966034E+03   0.90948564E+00   0.21810967E-03   0.66575427E+00   0.44561034E+00
 224.0000   0.11593855E-01  -0.17876207E+03   0.89408601E+00   0.21901903E-03   0.66575267E+00   0.44422714E+00
 225.0000   0.11614923E-01  -0.17787188E+03   0.88243470E+00   0.21873818E-03   0.66574747E+00   0.44433852E+00
 226.0000   0.11646404E-01  -0.17700567E+03   0.86803892E+00   0.21904303E-03   0.66574543E+00   0.44462730E+00
 227.0000   0.11673812E-01  -0.17613261E+03   0.85381164E+00   0.21877974E-03   0.66574361E+00   0.44444847E+00
 228.0000   0.11691152E-01  -0.17528763E+03   0.84255130E+00   0.21921199E-03   0.66573875E+00   0.44363549E+00
 229.0000   0.11723883E-01  -0.17444354E+03   0.82989769E+00   0.21928508E-03   0.66573583E+00   0.44413220E+00
 230.0000   0.11748967E-01  -0.17361946E+03   0.81584467E+00   0.21877299E-03   0.66573476E+00   0.44454971E+00
 231.0000   0.11766104E-01  -0.17281158E+03   0.80635854E+00   0.21917461E-03   0.66572885E+00   0.44381760E+00
 232.0000   0.11789250E-01  -0.17201162E+03   0.79446980E+00   0.21838307E-03   0.66572609E+00   0.44440427E+00
 233.0000   0.11812893E-01  -0.17122957E+03   0.78354117E+00   0.21840189E-03   0.66572240E+00   0.44463538E+00
 234.0000   0.11834754E-01  -0.17045189E+03   0.77506724E+00   0.21806740E-03   0.66571598E+00   0.44485631E+00
