 #written on 11Aug2024 at 15:20:44 
 #----------------------------------------------- MONTECARLO ---------------------------------------------------#
 # Temp      Magnetization     Energy_ave          C_M              Sus              U_E              U_M       #
 #--------------------------------------------------------------------------------------------------------------#
   1.0000   0.10024402E-02  -0.17167455E+03   0.98882957E+00   0.43454735E-03   0.66666665E+00   0.44429570E+00
   2.0000   0.14163899E-02  -0.17067010E+03   0.10030669E+01   0.43315208E-03   0.66666659E+00   0.44485419E+00
   3.0000   0.17369457E-02  -0.16965917E+03   0.10112578E+01   0.43382405E-03   0.66666649E+00   0.44553264E+00
   4.0000   0.20058325E-02  -0.16864330E+03   0.10193811E+01   0.43358580E-03   0.66666635E+00   0.44621472E+00
   5.0000   0.22383069E-02  -0.16762203E+03   0.10220544E+01   0.43315085E-03   0.66666617E+00   0.44500352E+00
   6.0000   0.24577584E-02  -0.16659454E+03   0.10381020E+01   0.43606170E-03   0.66666593E+00   0.44399804E+00
   7.0000   0.26542583E-02  -0.16556114E+03   0.10290205E+01   0.43540005E-03   0.66666566E+00   0.44403420E+00
   8.0000   0.28413566E-02  -0.16452199E+03   0.10440383E+01   0.43703855E-03   0.66666531E+00   0.44445726E+00
   9.0000   0.30116817E-02  -0.16347499E+03   0.10546818E+01   0.43647713E-03   0.66666491E+00   0.44450391E+00
  10.0000   0.31725188E-02  -0.16242303E+03   0.10583491E+01   0.43686333E-03   0.66666447E+00   0.44351278E+00
  11.0000   0.33329059E-02  -0.16136393E+03   0.10573574E+01   0.43696282E-03   0.66666397E+00   0.44416287E+00
  12.0000   0.34807522E-02  -0.16029729E+03   0.10747730E+01   0.43753117E-03   0.66666336E+00   0.44428757E+00
  13.0000   0.36231698E-02  -0.15921894E+03   0.10831186E+01   0.43678184E-03   0.66666271E+00   0.44468978E+00
  14.0000   0.37602385E-02  -0.15813508E+03   0.10877914E+01   0.43755811E-03   0.66666199E+00   0.44452051E+00
  15.0000   0.38910415E-02  -0.15704290E+03   0.10945795E+01   0.43654076E-03   0.66666119E+00   0.44463928E+00
  16.0000   0.40218548E-02  -0.15594012E+03   0.11069161E+01   0.43805845E-03   0.66666027E+00   0.44411019E+00
  17.0000   0.41494105E-02  -0.15482449E+03   0.11157803E+01   0.43851134E-03   0.66665929E+00   0.44453855E+00
  18.0000   0.42711160E-02  -0.15370423E+03   0.11226236E+01   0.43880762E-03   0.66665822E+00   0.44411979E+00
  19.0000   0.43894923E-02  -0.15256985E+03   0.11382387E+01   0.43832676E-03   0.66665698E+00   0.44426708E+00
  20.0000   0.44990652E-02  -0.15142171E+03   0.11557849E+01   0.43786787E-03   0.66665560E+00   0.44473188E+00
  21.0000   0.46175993E-02  -0.15026149E+03   0.11724824E+01   0.44037285E-03   0.66665410E+00   0.44367944E+00
  22.0000   0.47282776E-02  -0.14908289E+03   0.11845875E+01   0.44083579E-03   0.66665251E+00   0.44372115E+00
  23.0000   0.48325024E-02  -0.14789155E+03   0.12027608E+01   0.43858250E-03   0.66665071E+00   0.44477326E+00
  24.0000   0.49496214E-02  -0.14668297E+03   0.12137822E+01   0.44217969E-03   0.66664884E+00   0.44438276E+00
  25.0000   0.50463112E-02  -0.14545285E+03   0.12419941E+01   0.44135077E-03   0.66664654E+00   0.44402148E+00
  26.0000   0.51504435E-02  -0.14420128E+03   0.12637591E+01   0.44196354E-03   0.66664413E+00   0.44362243E+00
  27.0000   0.52479071E-02  -0.14292465E+03   0.12901952E+01   0.44179981E-03   0.66664141E+00   0.44419027E+00
  28.0000   0.53478635E-02  -0.14161464E+03   0.13277396E+01   0.44397635E-03   0.66663819E+00   0.44334914E+00
  29.0000   0.54458500E-02  -0.14027823E+03   0.13535878E+01   0.44346111E-03   0.66663493E+00   0.44387927E+00
  30.0000   0.55423352E-02  -0.13890404E+03   0.13944562E+01   0.44273537E-03   0.66663099E+00   0.44447338E+00
  31.0000   0.56369564E-02  -0.13748433E+03   0.14395539E+01   0.44291893E-03   0.66662652E+00   0.44490615E+00
  32.0000   0.57359760E-02  -0.13601498E+03   0.15021443E+01   0.44597557E-03   0.66662106E+00   0.44369708E+00
  33.0000   0.58282314E-02  -0.13448365E+03   0.15688504E+01   0.44582132E-03   0.66661486E+00   0.44409194E+00
  34.0000   0.59226433E-02  -0.13287796E+03   0.16536273E+01   0.44670547E-03   0.66660729E+00   0.44401114E+00
  35.0000   0.60143046E-02  -0.13116932E+03   0.17605574E+01   0.44663174E-03   0.66659793E+00   0.44438686E+00
  36.0000   0.61026192E-02  -0.12934033E+03   0.19010933E+01   0.44909967E-03   0.66658591E+00   0.44391028E+00
  37.0000   0.62040957E-02  -0.12734860E+03   0.20926407E+01   0.44951504E-03   0.66656982E+00   0.44482610E+00
  38.0000   0.62877611E-02  -0.12515620E+03   0.22979653E+01   0.45021269E-03   0.66655051E+00   0.44460151E+00
  39.0000   0.63770744E-02  -0.12273060E+03   0.25020593E+01   0.45169186E-03   0.66652814E+00   0.44396581E+00
  40.0000   0.64680804E-02  -0.12020789E+03   0.25703604E+01   0.45292415E-03   0.66651057E+00   0.44417667E+00
  41.0000   0.65504451E-02  -0.11768321E+03   0.24236199E+01   0.45264925E-03   0.66650526E+00   0.44455019E+00
  42.0000   0.66275966E-02  -0.11535175E+03   0.21809540E+01   0.45313689E-03   0.66650798E+00   0.44433374E+00
  43.0000   0.67042555E-02  -0.11330216E+03   0.19460727E+01   0.45260135E-03   0.66651282E+00   0.44445133E+00
  44.0000   0.67676857E-02  -0.11146160E+03   0.17406133E+01   0.45025965E-03   0.66651778E+00   0.44421382E+00
  45.0000   0.68352031E-02  -0.10982901E+03   0.15549938E+01   0.45005997E-03   0.66652340E+00   0.44365026E+00
  46.0000   0.69052527E-02  -0.10833999E+03   0.14208348E+01   0.44819220E-03   0.66652610E+00   0.44451498E+00
  47.0000   0.69690050E-02  -0.10697374E+03   0.13175124E+01   0.44733995E-03   0.66652711E+00   0.44417755E+00
  48.0000   0.70286468E-02  -0.10570220E+03   0.12246678E+01   0.44547464E-03   0.66652809E+00   0.44481763E+00
  49.0000   0.70914322E-02  -0.10450774E+03   0.11628242E+01   0.44389124E-03   0.66652641E+00   0.44479428E+00
  50.0000   0.71518579E-02  -0.10338123E+03   0.11011944E+01   0.44234929E-03   0.66652534E+00   0.44467379E+00
  51.0000   0.72156272E-02  -0.10229947E+03   0.10494299E+01   0.44183268E-03   0.66652357E+00   0.44441301E+00
  52.0000   0.72731883E-02  -0.10127219E+03   0.10083570E+01   0.44017254E-03   0.66652081E+00   0.44467912E+00
  53.0000   0.73373544E-02  -0.10028198E+03   0.97174152E+00   0.44039811E-03   0.66651776E+00   0.44407969E+00
  54.0000   0.73999466E-02  -0.99332136E+02   0.93488223E+00   0.43885896E-03   0.66651510E+00   0.44410718E+00
  55.0000   0.74545648E-02  -0.98413959E+02   0.90500555E+00   0.43692584E-03   0.66651161E+00   0.44441970E+00
  56.0000   0.75114562E-02  -0.97523834E+02   0.87600366E+00   0.43567554E-03   0.66650822E+00   0.44466755E+00
  57.0000   0.75634107E-02  -0.96661060E+02   0.84731615E+00   0.43435825E-03   0.66650504E+00   0.44430395E+00
  58.0000   0.76279672E-02  -0.95824390E+02   0.82429995E+00   0.43331301E-03   0.66650102E+00   0.44484222E+00
  59.0000   0.76864768E-02  -0.95010861E+02   0.80446068E+00   0.43286718E-03   0.66649651E+00   0.44454333E+00
  60.0000   0.77332114E-02  -0.94218356E+02   0.78016649E+00   0.43186557E-03   0.66649313E+00   0.44454897E+00
  61.0000   0.77892453E-02  -0.93445626E+02   0.76277828E+00   0.43002981E-03   0.66648838E+00   0.44486497E+00
  62.0000   0.78491815E-02  -0.92692328E+02   0.74411979E+00   0.43006589E-03   0.66648406E+00   0.44431765E+00
  63.0000   0.79033603E-02  -0.91954709E+02   0.72655344E+00   0.42978442E-03   0.66647961E+00   0.44388328E+00
  64.0000   0.79524485E-02  -0.91238983E+02   0.71239506E+00   0.42757209E-03   0.66647441E+00   0.44515094E+00
  65.0000   0.80059494E-02  -0.90537713E+02   0.69323148E+00   0.42646651E-03   0.66647070E+00   0.44474139E+00
  66.0000   0.80521661E-02  -0.89846097E+02   0.67912537E+00   0.42509449E-03   0.66646567E+00   0.44446269E+00
  67.0000   0.81123262E-02  -0.89172724E+02   0.66678789E+00   0.42510346E-03   0.66646021E+00   0.44453471E+00
  68.0000   0.81604939E-02  -0.88511409E+02   0.65396717E+00   0.42414561E-03   0.66645497E+00   0.44436321E+00
  69.0000   0.82149562E-02  -0.87864477E+02   0.64229917E+00   0.42340653E-03   0.66644944E+00   0.44435701E+00
  70.0000   0.82614555E-02  -0.87227087E+02   0.63081958E+00   0.42253273E-03   0.66644386E+00   0.44410885E+00
  71.0000   0.83086106E-02  -0.86604863E+02   0.61838803E+00   0.42136237E-03   0.66643873E+00   0.44376957E+00
  72.0000   0.83601555E-02  -0.85991419E+02   0.60624622E+00   0.41936486E-03   0.66643357E+00   0.44471464E+00
  73.0000   0.84064136E-02  -0.85391211E+02   0.59769638E+00   0.41847189E-03   0.66642711E+00   0.44487258E+00
  74.0000   0.84614005E-02  -0.84797507E+02   0.58689190E+00   0.41873181E-03   0.66642156E+00   0.44450904E+00
  75.0000   0.85011933E-02  -0.84217590E+02   0.57640595E+00   0.41701497E-03   0.66641597E+00   0.44453155E+00
  76.0000   0.85448811E-02  -0.83644776E+02   0.56689709E+00   0.41508086E-03   0.66641002E+00   0.44487779E+00
  77.0000   0.86001131E-02  -0.83083467E+02   0.55806187E+00   0.41581813E-03   0.66640382E+00   0.44452212E+00
  78.0000   0.86524406E-02  -0.82526268E+02   0.54862696E+00   0.41541496E-03   0.66639790E+00   0.44484599E+00
  79.0000   0.86917535E-02  -0.81978514E+02   0.54200810E+00   0.41481485E-03   0.66639065E+00   0.44378990E+00
  80.0000   0.87344286E-02  -0.81447135E+02   0.53246779E+00   0.41176638E-03   0.66638498E+00   0.44502745E+00
