 #written on 22Jan2025 at 12:00:47 
 #----------------------------------------------- MONTECARLO ---------------------------------------------------#
 # Temp      Magnetization     Energy_ave          C_M              Sus              U_E              U_M       #
 #--------------------------------------------------------------------------------------------------------------#
  21.0000   0.28502755E+00  -0.17182438E+03   0.10610705E+01   0.57565519E-03   0.66665786E+00   0.66658419E+00
  22.0000   0.28264910E+00  -0.17075873E+03   0.10642141E+01   0.59900408E-03   0.66665685E+00   0.66657524E+00
  23.0000   0.28021856E+00  -0.16968744E+03   0.10742099E+01   0.63246618E-03   0.66665570E+00   0.66656401E+00
  24.0000   0.27781279E+00  -0.16861392E+03   0.10733036E+01   0.66706854E-03   0.66665459E+00   0.66655176E+00
  25.0000   0.27534862E+00  -0.16754015E+03   0.10795323E+01   0.71573202E-03   0.66665331E+00   0.66653601E+00
  26.0000   0.27291932E+00  -0.16645704E+03   0.10816657E+01   0.73436682E-03   0.66665201E+00   0.66652471E+00
  27.0000   0.27045652E+00  -0.16537007E+03   0.10887603E+01   0.76792189E-03   0.66665055E+00   0.66650972E+00
  28.0000   0.26802073E+00  -0.16428384E+03   0.10941726E+01   0.79447185E-03   0.66664901E+00   0.66649524E+00
  29.0000   0.26554247E+00  -0.16318749E+03   0.10968935E+01   0.82506313E-03   0.66664743E+00   0.66647886E+00
  30.0000   0.26307092E+00  -0.16208554E+03   0.11033574E+01   0.85398903E-03   0.66664567E+00   0.66646180E+00
  31.0000   0.26053315E+00  -0.16098047E+03   0.11057926E+01   0.89302954E-03   0.66664389E+00   0.66644103E+00
  32.0000   0.25799082E+00  -0.15986909E+03   0.11078810E+01   0.93101722E-03   0.66664201E+00   0.66641905E+00
  33.0000   0.25549644E+00  -0.15875866E+03   0.11217911E+01   0.96672963E-03   0.66663975E+00   0.66639639E+00
  34.0000   0.25292033E+00  -0.15763750E+03   0.11280203E+01   0.10122542E-02   0.66663752E+00   0.66636929E+00
  35.0000   0.25039613E+00  -0.15651222E+03   0.11294436E+01   0.10377520E-02   0.66663530E+00   0.66634653E+00
  36.0000   0.24781172E+00  -0.15538028E+03   0.11344518E+01   0.10746905E-02   0.66663284E+00   0.66631859E+00
  37.0000   0.24523683E+00  -0.15424134E+03   0.11450127E+01   0.11042990E-02   0.66663007E+00   0.66629132E+00
  38.0000   0.24260679E+00  -0.15309800E+03   0.11455117E+01   0.11416253E-02   0.66662747E+00   0.66625954E+00
  39.0000   0.24000444E+00  -0.15195158E+03   0.11594352E+01   0.11851471E-02   0.66662425E+00   0.66622363E+00
  40.0000   0.23732786E+00  -0.15079277E+03   0.11592666E+01   0.12317894E-02   0.66662136E+00   0.66618393E+00
  41.0000   0.23462189E+00  -0.14962266E+03   0.11684109E+01   0.12676518E-02   0.66661794E+00   0.66614569E+00
  42.0000   0.23200012E+00  -0.14845580E+03   0.11769834E+01   0.12912638E-02   0.66661435E+00   0.66611071E+00
  43.0000   0.22929615E+00  -0.14727916E+03   0.11821250E+01   0.13367331E-02   0.66661070E+00   0.66606377E+00
  44.0000   0.22651758E+00  -0.14608894E+03   0.11894707E+01   0.13874373E-02   0.66660674E+00   0.66601095E+00
  45.0000   0.22378113E+00  -0.14490074E+03   0.12000161E+01   0.14263241E-02   0.66660239E+00   0.66596019E+00
  46.0000   0.22097356E+00  -0.14369483E+03   0.12070203E+01   0.14643962E-02   0.66659797E+00   0.66590659E+00
  47.0000   0.21816941E+00  -0.14248319E+03   0.12150115E+01   0.15241725E-02   0.66659325E+00   0.66583828E+00
  48.0000   0.21536907E+00  -0.14126506E+03   0.12239590E+01   0.15652289E-02   0.66658819E+00   0.66577545E+00
  49.0000   0.21245340E+00  -0.14003334E+03   0.12355503E+01   0.16351375E-02   0.66658266E+00   0.66569061E+00
  50.0000   0.20954087E+00  -0.13879341E+03   0.12437706E+01   0.16804345E-02   0.66657703E+00   0.66561476E+00
  51.0000   0.20660328E+00  -0.13754031E+03   0.12564002E+01   0.17559087E-02   0.66657074E+00   0.66551475E+00
  52.0000   0.20364666E+00  -0.13627959E+03   0.12682073E+01   0.17945799E-02   0.66656414E+00   0.66543147E+00
  53.0000   0.20070421E+00  -0.13500594E+03   0.12779572E+01   0.18257348E-02   0.66655731E+00   0.66534830E+00
  54.0000   0.19768299E+00  -0.13372066E+03   0.12891103E+01   0.18949046E-02   0.66654994E+00   0.66523133E+00
  55.0000   0.19456960E+00  -0.13242597E+03   0.13055434E+01   0.19690258E-02   0.66654163E+00   0.66509959E+00
  56.0000   0.19146573E+00  -0.13111153E+03   0.13215842E+01   0.20224011E-02   0.66653280E+00   0.66497519E+00
  57.0000   0.18826138E+00  -0.12978524E+03   0.13362700E+01   0.21020354E-02   0.66652357E+00   0.66481779E+00
  58.0000   0.18508399E+00  -0.12844939E+03   0.13456655E+01   0.21454498E-02   0.66651435E+00   0.66468054E+00
  59.0000   0.18183743E+00  -0.12708955E+03   0.13583714E+01   0.22031924E-02   0.66650413E+00   0.66451876E+00
  60.0000   0.17851788E+00  -0.12572197E+03   0.13808580E+01   0.23002213E-02   0.66649208E+00   0.66430473E+00
  61.0000   0.17508870E+00  -0.12432614E+03   0.14028844E+01   0.23850745E-02   0.66647920E+00   0.66408176E+00
  62.0000   0.17163379E+00  -0.12292096E+03   0.14171766E+01   0.24906870E-02   0.66646652E+00   0.66381550E+00
  63.0000   0.16816925E+00  -0.12150090E+03   0.14414531E+01   0.25678497E-02   0.66645155E+00   0.66355783E+00
  64.0000   0.16454520E+00  -0.12004300E+03   0.14587763E+01   0.26725226E-02   0.66643652E+00   0.66324025E+00
  65.0000   0.16079850E+00  -0.11857131E+03   0.14870854E+01   0.28069109E-02   0.66641863E+00   0.66284923E+00
  66.0000   0.15701607E+00  -0.11707669E+03   0.15154572E+01   0.29310008E-02   0.66639939E+00   0.66243409E+00
  67.0000   0.15308519E+00  -0.11554786E+03   0.15379403E+01   0.30447132E-02   0.66637973E+00   0.66197509E+00
  68.0000   0.14896874E+00  -0.11399533E+03   0.15711715E+01   0.32381614E-02   0.66635643E+00   0.66134129E+00
  69.0000   0.14470841E+00  -0.11240816E+03   0.16038537E+01   0.34406360E-02   0.66633136E+00   0.66060633E+00
  70.0000   0.14024703E+00  -0.11078546E+03   0.16356833E+01   0.36665208E-02   0.66630437E+00   0.65972128E+00
  71.0000   0.13563170E+00  -0.10913759E+03   0.16722948E+01   0.39353394E-02   0.66627405E+00   0.65863159E+00
  72.0000   0.13065573E+00  -0.10742982E+03   0.17203214E+01   0.42807800E-02   0.66623806E+00   0.65720704E+00
  73.0000   0.12555952E+00  -0.10569546E+03   0.17609296E+01   0.46494407E-02   0.66620075E+00   0.65548921E+00
  74.0000   0.11995876E+00  -0.10389746E+03   0.18176437E+01   0.51673481E-02   0.66615533E+00   0.65306089E+00
  75.0000   0.11393002E+00  -0.10205599E+03   0.18720447E+01   0.58782063E-02   0.66610607E+00   0.64965155E+00
  76.0000   0.10728081E+00  -0.10016458E+03   0.19324059E+01   0.68749780E-02   0.66604988E+00   0.64459674E+00
  77.0000   0.10000417E+00  -0.98204684E+02   0.19842217E+01   0.80198809E-02   0.66599046E+00   0.63752671E+00
  78.0000   0.91998475E-01  -0.96198838E+02   0.20348102E+01   0.93306263E-02   0.66592487E+00   0.62732333E+00
  79.0000   0.83156825E-01  -0.94152206E+02   0.20476258E+01   0.10752328E-01   0.66586700E+00   0.61179722E+00
  80.0000   0.73976236E-01  -0.92088750E+02   0.20274148E+01   0.11386924E-01   0.66581749E+00   0.59265330E+00
  81.0000   0.65324403E-01  -0.90098728E+02   0.19372392E+01   0.11232767E-01   0.66579716E+00   0.57116192E+00
  82.0000   0.57554396E-01  -0.88198712E+02   0.18454554E+01   0.10482467E-01   0.66578036E+00   0.54845298E+00
  83.0000   0.50840831E-01  -0.86415541E+02   0.17163389E+01   0.93226503E-02   0.66578647E+00   0.52755098E+00
  84.0000   0.45220136E-01  -0.84755014E+02   0.16087727E+01   0.80381125E-02   0.66578832E+00   0.50948310E+00
  85.0000   0.40815531E-01  -0.83212576E+02   0.15023404E+01   0.69420570E-02   0.66579533E+00   0.49520865E+00
  86.0000   0.37157525E-01  -0.81750621E+02   0.14135328E+01   0.59587715E-02   0.66579743E+00   0.48454501E+00
  87.0000   0.34196991E-01  -0.80376027E+02   0.13416092E+01   0.51649169E-02   0.66579323E+00   0.47595354E+00
  88.0000   0.31709300E-01  -0.79074240E+02   0.12720226E+01   0.44867154E-02   0.66579154E+00   0.46997432E+00
  89.0000   0.29697284E-01  -0.77837602E+02   0.12163088E+01   0.39616881E-02   0.66578335E+00   0.46510651E+00
  90.0000   0.27948115E-01  -0.76646279E+02   0.11673373E+01   0.35249536E-02   0.66577271E+00   0.46055424E+00
  91.0000   0.26497647E-01  -0.75496524E+02   0.11200471E+01   0.31617455E-02   0.66576289E+00   0.45765172E+00
  92.0000   0.25222712E-01  -0.74404132E+02   0.10800797E+01   0.28627119E-02   0.66574963E+00   0.45490686E+00
  93.0000   0.24193012E-01  -0.73340114E+02   0.10400562E+01   0.26025754E-02   0.66573798E+00   0.45489975E+00
  94.0000   0.23257468E-01  -0.72312460E+02   0.10064715E+01   0.24013438E-02   0.66572220E+00   0.45284273E+00
  95.0000   0.22482567E-01  -0.71320280E+02   0.97459832E+00   0.22283848E-02   0.66570653E+00   0.45131086E+00
  96.0000   0.21772758E-01  -0.70361918E+02   0.94413020E+00   0.20769488E-02   0.66569086E+00   0.44983034E+00
  97.0000   0.21114667E-01  -0.69424408E+02   0.91750972E+00   0.19312280E-02   0.66567224E+00   0.44984129E+00
  98.0000   0.20560967E-01  -0.68518230E+02   0.89323467E+00   0.18201121E-02   0.66565214E+00   0.44866038E+00
  99.0000   0.20071671E-01  -0.67640637E+02   0.86686260E+00   0.17204813E-02   0.66563584E+00   0.44813644E+00
 100.0000   0.19653998E-01  -0.66786457E+02   0.84322631E+00   0.16363927E-02   0.66561724E+00   0.44741481E+00
 101.0000   0.19223096E-01  -0.65949676E+02   0.82405068E+00   0.15486808E-02   0.66559371E+00   0.44780840E+00
 102.0000   0.18855194E-01  -0.65135598E+02   0.80165146E+00   0.14789887E-02   0.66557552E+00   0.44641141E+00
 103.0000   0.18517176E-01  -0.64344234E+02   0.78173800E+00   0.14135472E-02   0.66555480E+00   0.44648301E+00
 104.0000   0.18240088E-01  -0.63578616E+02   0.76004658E+00   0.13559251E-02   0.66553789E+00   0.44671891E+00
 105.0000   0.17961925E-01  -0.62823074E+02   0.74136857E+00   0.13013884E-02   0.66551714E+00   0.44727279E+00
 106.0000   0.17695498E-01  -0.62095850E+02   0.72208424E+00   0.12566107E-02   0.66549869E+00   0.44623783E+00
 107.0000   0.17474696E-01  -0.61377466E+02   0.70440474E+00   0.12147452E-02   0.66547837E+00   0.44561017E+00
 108.0000   0.17278289E-01  -0.60678767E+02   0.69001201E+00   0.11765181E-02   0.66545340E+00   0.44577115E+00
 109.0000   0.17080860E-01  -0.60001539E+02   0.67263654E+00   0.11395571E-02   0.66543464E+00   0.44586223E+00
 110.0000   0.16900057E-01  -0.59339417E+02   0.65562489E+00   0.11064952E-02   0.66541614E+00   0.44574747E+00
 111.0000   0.16758800E-01  -0.58682121E+02   0.64289978E+00   0.10771887E-02   0.66539006E+00   0.44556864E+00
 112.0000   0.16595620E-01  -0.58051658E+02   0.62706855E+00   0.10496099E-02   0.66537125E+00   0.44475830E+00
 113.0000   0.16467740E-01  -0.57430261E+02   0.61292123E+00   0.10206269E-02   0.66534974E+00   0.44626934E+00
 114.0000   0.16339926E-01  -0.56821587E+02   0.60060122E+00   0.99802331E-03   0.66532514E+00   0.44524771E+00
 115.0000   0.16213204E-01  -0.56229478E+02   0.58635935E+00   0.97437224E-03   0.66530559E+00   0.44533478E+00
 116.0000   0.16102090E-01  -0.55649462E+02   0.57454675E+00   0.95358895E-03   0.66528134E+00   0.44499302E+00
 117.0000   0.16008191E-01  -0.55080537E+02   0.56239964E+00   0.93532981E-03   0.66525864E+00   0.44502097E+00
 118.0000   0.15912219E-01  -0.54522457E+02   0.55135695E+00   0.91285112E-03   0.66523363E+00   0.44573643E+00
 119.0000   0.15822054E-01  -0.53981525E+02   0.53839872E+00   0.89797665E-03   0.66521480E+00   0.44533220E+00
 120.0000   0.15753451E-01  -0.53448657E+02   0.52875158E+00   0.88140040E-03   0.66518771E+00   0.44554331E+00
 121.0000   0.15661900E-01  -0.52927607E+02   0.51700503E+00   0.86384776E-03   0.66516719E+00   0.44558664E+00
 122.0000   0.15597356E-01  -0.52410553E+02   0.50702933E+00   0.85282241E-03   0.66514229E+00   0.44453347E+00
 123.0000   0.15548006E-01  -0.51911006E+02   0.49571780E+00   0.83996156E-03   0.66512228E+00   0.44429144E+00
 124.0000   0.15473072E-01  -0.51419586E+02   0.48720406E+00   0.82509987E-03   0.66509468E+00   0.44495970E+00
 125.0000   0.15426288E-01  -0.50938076E+02   0.47722149E+00   0.81246810E-03   0.66507216E+00   0.44482453E+00
 126.0000   0.15380543E-01  -0.50460918E+02   0.46738845E+00   0.80266933E-03   0.66504993E+00   0.44417526E+00
 127.0000   0.15325890E-01  -0.50000398E+02   0.45879219E+00   0.79127274E-03   0.66502468E+00   0.44478451E+00
 128.0000   0.15283904E-01  -0.49547368E+02   0.45117398E+00   0.77936256E-03   0.66499611E+00   0.44478062E+00
 129.0000   0.15249633E-01  -0.49101743E+02   0.44159454E+00   0.76922231E-03   0.66497584E+00   0.44498582E+00
 130.0000   0.15206068E-01  -0.48661913E+02   0.43492363E+00   0.75916839E-03   0.66494467E+00   0.44512452E+00
 131.0000   0.15171804E-01  -0.48233025E+02   0.42517767E+00   0.75247969E-03   0.66492700E+00   0.44400258E+00
 132.0000   0.15141314E-01  -0.47807636E+02   0.41804367E+00   0.74340321E-03   0.66489884E+00   0.44431616E+00
 133.0000   0.15118094E-01  -0.47398365E+02   0.41075751E+00   0.73321735E-03   0.66487276E+00   0.44511944E+00
 134.0000   0.15091763E-01  -0.46987297E+02   0.40283118E+00   0.72721368E-03   0.66484946E+00   0.44482624E+00
 135.0000   0.15061230E-01  -0.46586406E+02   0.39574570E+00   0.71867238E-03   0.66482337E+00   0.44466368E+00
 136.0000   0.15048043E-01  -0.46194887E+02   0.38905424E+00   0.71025014E-03   0.66479629E+00   0.44507911E+00
 137.0000   0.15026284E-01  -0.45811022E+02   0.38216513E+00   0.70351506E-03   0.66477145E+00   0.44492714E+00
 138.0000   0.14989054E-01  -0.45430712E+02   0.37522211E+00   0.69435780E-03   0.66474669E+00   0.44515180E+00
 139.0000   0.14966792E-01  -0.45057298E+02   0.36962073E+00   0.69032325E-03   0.66471566E+00   0.44392263E+00
 140.0000   0.14958827E-01  -0.44694326E+02   0.36163795E+00   0.68285549E-03   0.66469875E+00   0.44435005E+00
