 #written on  6Sep2024 at 22:45:49 
 #----------------------------------------------- MONTECARLO ---------------------------------------------------#
 # Temp      Magnetization     Energy_ave          C_M              Sus              U_E              U_M       #
 #--------------------------------------------------------------------------------------------------------------#
 410.0000   0.10219520E-01  -0.45276207E+03   0.19415932E+01   0.10386794E-03   0.66573310E+00   0.44113043E+00
 411.0000   0.10234500E-01  -0.45087697E+03   0.19490546E+01   0.10371986E-03   0.66571718E+00   0.44213317E+00
 412.0000   0.10258399E-01  -0.44888899E+03   0.19588593E+01   0.10372123E-03   0.66569916E+00   0.44240612E+00
 413.0000   0.10272300E-01  -0.44695609E+03   0.19649264E+01   0.10418650E-03   0.66568294E+00   0.44160868E+00
 414.0000   0.10290532E-01  -0.44498621E+03   0.19725568E+01   0.10378081E-03   0.66566575E+00   0.44279034E+00
 415.0000   0.10302081E-01  -0.44301208E+03   0.19878252E+01   0.10419507E-03   0.66564415E+00   0.44142905E+00
 416.0000   0.10322397E-01  -0.44100695E+03   0.19924898E+01   0.10417934E-03   0.66562749E+00   0.44176972E+00
 417.0000   0.10347597E-01  -0.43902260E+03   0.20052360E+01   0.10426940E-03   0.66560629E+00   0.44267830E+00
 418.0000   0.10352844E-01  -0.43701765E+03   0.20070605E+01   0.10449773E-03   0.66559028E+00   0.44175459E+00
 419.0000   0.10369467E-01  -0.43501525E+03   0.20177827E+01   0.10437535E-03   0.66556938E+00   0.44158893E+00
 420.0000   0.10397820E-01  -0.43295602E+03   0.20264062E+01   0.10468573E-03   0.66554891E+00   0.44183274E+00
 421.0000   0.10410744E-01  -0.43089717E+03   0.20388635E+01   0.10463844E-03   0.66552598E+00   0.44200684E+00
 422.0000   0.10428181E-01  -0.42888574E+03   0.20372231E+01   0.10479383E-03   0.66551046E+00   0.44222760E+00
 423.0000   0.10441361E-01  -0.42686012E+03   0.20575503E+01   0.10453485E-03   0.66548270E+00   0.44329547E+00
 424.0000   0.10468989E-01  -0.42479150E+03   0.20651659E+01   0.10487090E-03   0.66546087E+00   0.44265590E+00
 425.0000   0.10482665E-01  -0.42264413E+03   0.20772138E+01   0.10486100E-03   0.66543573E+00   0.44315373E+00
 426.0000   0.10498568E-01  -0.42062527E+03   0.20927055E+01   0.10503651E-03   0.66540872E+00   0.44300154E+00
 427.0000   0.10515646E-01  -0.41854580E+03   0.21027793E+01   0.10493121E-03   0.66538411E+00   0.44329894E+00
 428.0000   0.10537231E-01  -0.41637752E+03   0.21118530E+01   0.10529963E-03   0.66535960E+00   0.44241940E+00
 429.0000   0.10558016E-01  -0.41431474E+03   0.21279625E+01   0.10548460E-03   0.66532988E+00   0.44281576E+00
 430.0000   0.10572834E-01  -0.41219096E+03   0.21228103E+01   0.10543777E-03   0.66531323E+00   0.44304066E+00
 431.0000   0.10595587E-01  -0.41006882E+03   0.21416183E+01   0.10542481E-03   0.66528068E+00   0.44371146E+00
 432.0000   0.10613604E-01  -0.40790795E+03   0.21543672E+01   0.10565881E-03   0.66525103E+00   0.44345373E+00
 433.0000   0.10627745E-01  -0.40572747E+03   0.21685678E+01   0.10554641E-03   0.66522000E+00   0.44367265E+00
 434.0000   0.10645844E-01  -0.40353089E+03   0.21779301E+01   0.10596289E-03   0.66519106E+00   0.44321693E+00
 435.0000   0.10662951E-01  -0.40136904E+03   0.21959015E+01   0.10586576E-03   0.66515604E+00   0.44363712E+00
 436.0000   0.10683904E-01  -0.39914256E+03   0.22112422E+01   0.10618091E-03   0.66512154E+00   0.44342203E+00
 437.0000   0.10703508E-01  -0.39695946E+03   0.22170974E+01   0.10634116E-03   0.66509330E+00   0.44333060E+00
 438.0000   0.10724869E-01  -0.39474097E+03   0.22216698E+01   0.10622369E-03   0.66506492E+00   0.44412836E+00
 439.0000   0.10738943E-01  -0.39250276E+03   0.22376336E+01   0.10640262E-03   0.66502754E+00   0.44313223E+00
 440.0000   0.10751199E-01  -0.39026137E+03   0.22516434E+01   0.10651695E-03   0.66499097E+00   0.44343939E+00
 441.0000   0.10772660E-01  -0.38798834E+03   0.22633250E+01   0.10684645E-03   0.66495461E+00   0.44302425E+00
 442.0000   0.10802727E-01  -0.38573837E+03   0.22730249E+01   0.10687858E-03   0.66491984E+00   0.44379550E+00
 443.0000   0.10808189E-01  -0.38347240E+03   0.22824003E+01   0.10666510E-03   0.66488361E+00   0.44366590E+00
 444.0000   0.10820583E-01  -0.38116125E+03   0.23033037E+01   0.10707458E-03   0.66483768E+00   0.44286116E+00
 445.0000   0.10838764E-01  -0.37886699E+03   0.23162616E+01   0.10732596E-03   0.66479622E+00   0.44293006E+00
 446.0000   0.10865716E-01  -0.37655388E+03   0.23236546E+01   0.10748059E-03   0.66475886E+00   0.44298218E+00
 447.0000   0.10875601E-01  -0.37421563E+03   0.23378613E+01   0.10713077E-03   0.66471413E+00   0.44361441E+00
 448.0000   0.10900319E-01  -0.37185676E+03   0.23553517E+01   0.10741830E-03   0.66466619E+00   0.44370528E+00
 449.0000   0.10916906E-01  -0.36945986E+03   0.23637345E+01   0.10743130E-03   0.66462405E+00   0.44378254E+00
 450.0000   0.10944112E-01  -0.36706372E+03   0.23784602E+01   0.10759972E-03   0.66457520E+00   0.44415689E+00
 451.0000   0.10955480E-01  -0.36467020E+03   0.23948911E+01   0.10774326E-03   0.66452386E+00   0.44332978E+00
 452.0000   0.10975701E-01  -0.36222342E+03   0.24272321E+01   0.10778128E-03   0.66445603E+00   0.44392990E+00
 453.0000   0.10993135E-01  -0.35984122E+03   0.24273394E+01   0.10816553E-03   0.66441693E+00   0.44332647E+00
 454.0000   0.11009962E-01  -0.35745364E+03   0.24430030E+01   0.10812252E-03   0.66436193E+00   0.44347496E+00
 455.0000   0.11030874E-01  -0.35499508E+03   0.24432816E+01   0.10805537E-03   0.66431858E+00   0.44416236E+00
 456.0000   0.11047579E-01  -0.35256567E+03   0.24517405E+01   0.10845511E-03   0.66426765E+00   0.44339657E+00
 457.0000   0.11068505E-01  -0.35005781E+03   0.24703263E+01   0.10859425E-03   0.66420271E+00   0.44333588E+00
 458.0000   0.11091798E-01  -0.34762443E+03   0.24752377E+01   0.10871640E-03   0.66415285E+00   0.44394008E+00
 459.0000   0.11099123E-01  -0.34518155E+03   0.24794863E+01   0.10880681E-03   0.66410053E+00   0.44369175E+00
 460.0000   0.11123998E-01  -0.34272999E+03   0.24783650E+01   0.10875997E-03   0.66405405E+00   0.44441481E+00
 461.0000   0.11141206E-01  -0.34024256E+03   0.24789128E+01   0.10880667E-03   0.66400285E+00   0.44431162E+00
 462.0000   0.11156301E-01  -0.33773457E+03   0.24746386E+01   0.10870998E-03   0.66395467E+00   0.44452692E+00
 463.0000   0.11180849E-01  -0.33515393E+03   0.24861731E+01   0.10925295E-03   0.66388764E+00   0.44385785E+00
 464.0000   0.11203159E-01  -0.33269773E+03   0.24722411E+01   0.10947983E-03   0.66384746E+00   0.44413044E+00
 465.0000   0.11224423E-01  -0.33023228E+03   0.24494474E+01   0.10945976E-03   0.66381893E+00   0.44424750E+00
 466.0000   0.11236278E-01  -0.32779338E+03   0.24401603E+01   0.10967364E-03   0.66377299E+00   0.44375755E+00
 467.0000   0.11252657E-01  -0.32534183E+03   0.24192938E+01   0.10973807E-03   0.66374079E+00   0.44354734E+00
 468.0000   0.11282922E-01  -0.32294254E+03   0.23851500E+01   0.11020835E-03   0.66372540E+00   0.44342649E+00
 469.0000   0.11289743E-01  -0.32058256E+03   0.23587724E+01   0.10985375E-03   0.66369962E+00   0.44407219E+00
 470.0000   0.11309274E-01  -0.31825415E+03   0.23242724E+01   0.11002938E-03   0.66368539E+00   0.44418200E+00
 471.0000   0.11335227E-01  -0.31596377E+03   0.22777622E+01   0.10996754E-03   0.66368836E+00   0.44508364E+00
 472.0000   0.11345131E-01  -0.31363981E+03   0.22291010E+01   0.11039789E-03   0.66369358E+00   0.44359239E+00
 473.0000   0.11359558E-01  -0.31142180E+03   0.21792931E+01   0.11039021E-03   0.66370460E+00   0.44396569E+00
 474.0000   0.11383994E-01  -0.30930598E+03   0.21378912E+01   0.11055537E-03   0.66370533E+00   0.44419086E+00
 475.0000   0.11401699E-01  -0.30722757E+03   0.20859175E+01   0.11091718E-03   0.66372485E+00   0.44332986E+00
 476.0000   0.11410516E-01  -0.30517691E+03   0.20249602E+01   0.11047060E-03   0.66375887E+00   0.44425964E+00
 477.0000   0.11436036E-01  -0.30321791E+03   0.19699622E+01   0.11063741E-03   0.66378755E+00   0.44462334E+00
 478.0000   0.11444659E-01  -0.30125708E+03   0.19202065E+01   0.11086392E-03   0.66381095E+00   0.44407223E+00
 479.0000   0.11458580E-01  -0.29934333E+03   0.18603326E+01   0.11049737E-03   0.66385158E+00   0.44478854E+00
 480.0000   0.11478876E-01  -0.29751451E+03   0.18191081E+01   0.11103703E-03   0.66386855E+00   0.44389470E+00
 481.0000   0.11492201E-01  -0.29568236E+03   0.17577015E+01   0.11087970E-03   0.66391734E+00   0.44410201E+00
 482.0000   0.11512938E-01  -0.29400318E+03   0.17140306E+01   0.11072443E-03   0.66394333E+00   0.44551526E+00
 483.0000   0.11515262E-01  -0.29233627E+03   0.16647370E+01   0.11101895E-03   0.66398010E+00   0.44396333E+00
 484.0000   0.11533274E-01  -0.29072483E+03   0.16160880E+01   0.11096879E-03   0.66401875E+00   0.44397724E+00
 485.0000   0.11548702E-01  -0.28910415E+03   0.15678135E+01   0.11094967E-03   0.66405847E+00   0.44490626E+00
 486.0000   0.11560807E-01  -0.28753833E+03   0.15255778E+01   0.11102771E-03   0.66409065E+00   0.44432228E+00
 487.0000   0.11576822E-01  -0.28604777E+03   0.14852195E+01   0.11130980E-03   0.66412241E+00   0.44403033E+00
 488.0000   0.11591999E-01  -0.28457908E+03   0.14484661E+01   0.11123313E-03   0.66414954E+00   0.44418442E+00
 489.0000   0.11607140E-01  -0.28312654E+03   0.14091824E+01   0.11157088E-03   0.66418315E+00   0.44371858E+00
 490.0000   0.11620448E-01  -0.28174145E+03   0.13801803E+01   0.11140622E-03   0.66420029E+00   0.44442658E+00
 491.0000   0.11632730E-01  -0.28038248E+03   0.13445855E+01   0.11132004E-03   0.66423169E+00   0.44437106E+00
 492.0000   0.11656075E-01  -0.27904459E+03   0.13163902E+01   0.11130858E-03   0.66425027E+00   0.44459815E+00
 493.0000   0.11651591E-01  -0.27780917E+03   0.12892662E+01   0.11139510E-03   0.66426911E+00   0.44386152E+00
 494.0000   0.11674515E-01  -0.27649164E+03   0.12616271E+01   0.11140030E-03   0.66428862E+00   0.44423735E+00
 495.0000   0.11685541E-01  -0.27522218E+03   0.12320050E+01   0.11111394E-03   0.66431402E+00   0.44507665E+00
 496.0000   0.11697766E-01  -0.27401793E+03   0.12060960E+01   0.11136301E-03   0.66433424E+00   0.44434832E+00
 497.0000   0.11711326E-01  -0.27284011E+03   0.11806323E+01   0.11131184E-03   0.66435578E+00   0.44435774E+00
 498.0000   0.11722370E-01  -0.27165314E+03   0.11594057E+01   0.11165950E-03   0.66436794E+00   0.44396953E+00
 499.0000   0.11730079E-01  -0.27048996E+03   0.11388304E+01   0.11152116E-03   0.66438091E+00   0.44421087E+00
 500.0000   0.11749830E-01  -0.26938636E+03   0.11174598E+01   0.11155783E-03   0.66439608E+00   0.44453287E+00
 501.0000   0.11750996E-01  -0.26829405E+03   0.11011613E+01   0.11118864E-03   0.66440214E+00   0.44469266E+00
 502.0000   0.11771287E-01  -0.26719889E+03   0.10824598E+01   0.11139607E-03   0.66441336E+00   0.44464928E+00
 503.0000   0.11780756E-01  -0.26612254E+03   0.10648876E+01   0.11141048E-03   0.66442395E+00   0.44475452E+00
 504.0000   0.11794978E-01  -0.26504695E+03   0.10461825E+01   0.11156578E-03   0.66443736E+00   0.44450184E+00
 505.0000   0.11808611E-01  -0.26400772E+03   0.10268718E+01   0.11130076E-03   0.66445243E+00   0.44518510E+00
 506.0000   0.11806838E-01  -0.26299652E+03   0.10102752E+01   0.11115987E-03   0.66446317E+00   0.44430073E+00
 507.0000   0.11822146E-01  -0.26199770E+03   0.10018433E+01   0.11157572E-03   0.66445675E+00   0.44403750E+00
 508.0000   0.11840169E-01  -0.26098574E+03   0.98485764E+00   0.11146027E-03   0.66446866E+00   0.44411975E+00
 509.0000   0.11845309E-01  -0.26001254E+03   0.96701161E+00   0.11151083E-03   0.66448423E+00   0.44418739E+00
